timestamps_ecg,ecg,timestamps_ppg_1_green,ppg_1_green,timestamps_ppg_1_red,ppg_1_red,timestamps_ppg_1_ir,ppg_1_ir,timestamps_ppg_2_green,ppg_2_green,timestamps_ppg_2_red,ppg_2_red,timestamps_ppg_2_ir,ppg_2_ir
763530.0,-1395.0,763536.0,30428.0,763536.0,2275115.0,763536.0,2546066.0,763512.0,21303.0,763512.0,2273412.0,763512.0,2267852.0
763608.0,-1353.5316455696202,763636.0,30448.79207920792,763636.0,2275110.0495049506,763636.0,2546066.99009901,763612.0,21315.745098039217,763612.0,2273417.882352941,763612.0,2267880.431372549
763686.0,-1101.5316455696202,763736.0,30440.178217821784,763736.0,2275117.8415841586,763736.0,2546061.118811881,763712.0,21326.673267326732,763712.0,2273421.881188119,763712.0,2267867.415841584
763764.0,-878.5443037974684,763836.0,30463.058823529413,763836.0,2275129.529411765,763836.0,2546074.4509803923,763812.0,21333.656862745098,763812.0,2273415.343137255,763812.0,2267844.1764705884
763842.0,-820.632911392405,763936.0,30473.50495049505,763936.0,2275127.1485148515,763936.0,2546078.801980198,763912.0,21345.176470588234,763912.0,2273398.2352941176,763912.0,2267842.068627451
763920.0,-860.1518987341772,764036.0,30489.049504950493,764036.0,2275132.6435643565,764036.0,2546113.801980198,764012.0,21357.852941176472,764012.0,2273386.970588235,764012.0,2267788.205882353
763998.0,-915.0125,764136.0,30490.0,764136.0,2275138.584158416,764136.0,2546116.0,764112.0,21362.56862745098,764112.0,2273392.245098039,764112.0,2267755.343137255
764076.0,-990.1012658227849,764236.0,30495.52475247525,764236.0,2275122.425742574,764236.0,2546126.128712871,764212.0,21376.08823529412,764212.0,2273413.068627451,764212.0,2267760.725490196
764154.0,-1054.7088607594937,764336.0,30506.823529411766,764336.0,2275129.117647059,764336.0,2546130.6078431373,764312.0,21373.735294117647,764312.0,2273410.882352941,764312.0,2267774.794117647
764232.0,-1048.8987341772151,764436.0,30514.237623762376,764436.0,2275138.910891089,764436.0,2546152.386138614,764412.0,21390.5,764412.0,2273456.6666666665,764412.0,2267827.8333333335
764310.0,-1056.4683544303798,764536.0,30538.79207920792,764536.0,2275149.693069307,764536.0,2546154.118811881,764512.0,21410.274509803923,764512.0,2273467.6274509802,764512.0,2267880.31372549
764388.0,-1174.1898734177216,764636.0,30536.772277227723,764636.0,2275159.712871287,764636.0,2546150.5148514854,764612.0,21433.852941176472,764612.0,2273501.3529411764,764612.0,2267937.6470588236
764466.0,-1367.425,764736.0,30566.70588235294,764736.0,2275181.470588235,764736.0,2546201.1764705884,764712.0,21450.73267326733,764712.0,2273542.0693069305,764712.0,2268024.306930693
764544.0,-1447.746835443038,764836.0,30575.366336633662,764836.0,2275169.8514851485,764836.0,2546201.584158416,764812.0,21476.941176470587,764812.0,2273570.117647059,764812.0,2268105.411764706
764622.0,-1157.3544303797469,764936.0,30610.930693069306,764936.0,2275176.1485148515,764936.0,2546210.8118811883,764912.0,21485.49019607843,764912.0,2273609.529411765,764912.0,2268185.843137255
764700.0,-487.6835443037975,765036.0,30614.712871287127,765036.0,2275189.504950495,765036.0,2546228.613861386,765012.0,21522.274509803923,765012.0,2273644.2156862747,765012.0,2268284.6274509802
764778.0,255.6582278481012,765136.0,30628.61386138614,765136.0,2275201.7425742573,765136.0,2546236.871287129,765112.0,21569.176470588234,765112.0,2273698.1764705884,765112.0,2268395.1764705884
764856.0,694.75,765236.0,30635.970588235294,765236.0,2275195.2647058824,765236.0,2546252.294117647,765212.0,21606.333333333332,765212.0,2273740.3333333335,765212.0,2268484.588235294
764934.0,764.9113924050633,765336.0,30649.51485148515,765336.0,2275201.6039603963,765336.0,2546267.7326732674,765312.0,21646.333333333332,765312.0,2273787.6666666665,765312.0,2268572.6666666665
765012.0,703.8860759493671,765436.0,30672.30693069307,765436.0,2275207.8613861385,765436.0,2546269.4554455443,765412.0,21673.941176470587,765412.0,2273826.705882353,765412.0,2268644.7647058824
765090.0,757.4303797468355,765536.0,30700.10891089109,765536.0,2275217.386138614,765536.0,2546288.8217821782,765512.0,21695.574257425742,765512.0,2273844.9702970297,765512.0,2268719.594059406
765168.0,816.5443037974684,765636.0,30725.811881188118,765636.0,2275222.2574257427,765636.0,2546315.3168316833,765612.0,21723.147058823528,765612.0,2273872.470588235,765612.0,2268780.882352941
765246.0,541.2278481012659,765736.0,30733.48514851485,765736.0,2275225.9702970297,765736.0,2546327.198019802,765712.0,21733.20588235294,765712.0,2273900.754901961,765712.0,2268839.470588235
765324.0,-12.645569620253127,765836.0,30758.666666666668,765836.0,2275232.0784313725,765836.0,2546346.411764706,765812.0,21743.56862745098,765812.0,2273925.0392156863,765812.0,2268912.274509804
765402.0,-446.5,765936.0,30782.970297029704,765936.0,2275241.128712871,765936.0,2546367.2574257427,765912.0,21768.764705882353,765912.0,2273962.8235294116,765912.0,2268992.382352941
765480.0,-625.3291139240506,766036.0,30803.059405940596,766036.0,2275240.4851485146,766036.0,2546396.198019802,766012.0,21792.78431372549,766012.0,2273995.862745098,766012.0,2269073.2156862747
765558.0,-691.493670886076,766136.0,30819.396039603962,766136.0,2275250.089108911,766136.0,2546424.0198019804,766112.0,21821.225490196077,766112.0,2274016.3921568627,766112.0,2269148.931372549
765636.0,-830.4810126582279,766236.0,30847.46,766236.0,2275270.87,766236.0,2546449.25,766212.0,21847.079207920793,766212.0,2274046.702970297,766212.0,2269214.801980198
765714.0,-1072.987341772152,766336.0,30872.20588235294,766336.0,2275290.1764705884,766336.0,2546475.9411764704,766312.0,21872.5,766312.0,2274079.5,766312.0,2269281.0
765792.0,-1248.886075949367,766436.0,30886.29702970297,766436.0,2275288.702970297,766436.0,2546491.6336633665,766412.0,21908.75,766412.0,2274105.9423076925,766412.0,2269348.730769231
765870.0,-1256.4050632911392,766536.0,30903.58823529412,766536.0,2275292.117647059,766536.0,2546501.470588235,766512.0,21934.52,766512.0,2274144.92,766512.0,2269420.72
765948.0,-1129.9746835443038,766636.0,30902.762376237624,766636.0,2275287.7623762377,766636.0,2546492.9603960398,766612.0,21961.346153846152,766612.0,2274188.923076923,766612.0,2269503.0384615385
766026.0,-802.6,766736.0,30895.50495049505,766736.0,2275292.9801980196,766736.0,2546474.7722772276,766712.0,22001.7,766712.0,2274213.62,766712.0,2269571.58
766104.0,-302.55696202531647,766836.0,30880.49504950495,766836.0,2275293.4752475247,766836.0,2546454.495049505,766812.0,22032.92,766812.0,2274244.78,766812.0,2269642.0
766182.0,-142.30379746835445,766936.0,30834.554455445545,766936.0,2275282.7524752477,766936.0,2546420.0297029703,766912.0,22078.970588235294,766912.0,2274317.1764705884,766912.0,2269787.882352941
766260.0,-961.3037974683544,767036.0,30777.920792079207,767036.0,2275258.99009901,767036.0,2546370.326732673,767012.0,22114.166666666668,767012.0,2274338.8921568627,767012.0,2269860.588235294
766338.0,-1919.2278481012659,767136.0,30731.12745098039,767136.0,2275248.31372549,767136.0,2546320.81372549,767112.0,22139.06862745098,767112.0,2274365.068627451,767112.0,2269910.4411764704
766416.0,161.69620253164567,767236.0,30695.50495049505,767236.0,2275236.4554455443,767236.0,2546266.574257426,767212.0,22173.764705882353,767212.0,2274381.0,767212.0,2269929.3235294116
766494.0,7364.810126582279,767336.0,30645.04,767336.0,2275211.44,767336.0,2546234.4,767312.0,22195.774509803923,767312.0,2274342.1960784313,767312.0,2269866.274509804
766572.0,15929.025316455696,767436.0,30595.13725490196,767436.0,2275193.9607843137,767436.0,2546200.901960784,767412.0,22211.558823529413,767412.0,2274279.274509804,767412.0,2269713.0098039214
766650.0,18519.625,767536.0,30564.09900990099,767536.0,2275184.4554455443,767536.0,2546173.2574257427,767512.0,22218.0,767512.0,2274176.4455445544,767512.0,2269479.9306930695
766728.0,12615.645569620254,767636.0,30538.356435643564,767636.0,2275176.0396039602,767636.0,2546166.326732673,767612.0,22208.058823529413,767612.0,2274043.31372549,767612.0,2269160.68627451
766806.0,3381.481012658228,767736.0,30506.24,767736.0,2275171.48,767736.0,2546141.68,767712.0,22162.29411764706,767712.0,2273893.8235294116,767712.0,2268789.9411764704
766884.0,-2134.341772151899,767836.0,30469.320388349515,767836.0,2275162.4174757283,767836.0,2546102.8155339807,767812.0,22079.529411764706,767812.0,2273710.9803921566,767812.0,2268404.2156862747
766962.0,-2501.0,767936.0,30430.42,767936.0,2275153.02,767936.0,2546083.51,767912.0,21942.274509803923,767912.0,2273555.4901960786,767912.0,2268062.0588235296
767040.0,-1305.3291139240507,768036.0,30414.28431372549,768036.0,2275135.6666666665,768036.0,2546069.068627451,768012.0,21769.764705882353,768012.0,2273429.7647058824,768012.0,2267755.294117647
767118.0,-1346.2278481012659,768136.0,30387.1,768136.0,2275122.23,768136.0,2546047.89,768112.0,21581.607843137255,768112.0,2273291.9215686275,768112.0,2267486.274509804
767196.0,-2047.15,768236.0,30356.450980392157,768236.0,2275130.68627451,768236.0,2546027.1764705884,768212.0,21406.74,768212.0,2273168.18,768212.0,2267227.0
767274.0,-2264.3291139240505,768336.0,30350.5,768336.0,2275131.85,768336.0,2546006.05,768312.0,21250.155339805824,768312.0,2273056.86407767,768312.0,2266982.640776699
767352.0,-2266.1898734177216,768436.0,30320.323529411766,768436.0,2275109.911764706,768436.0,2545983.2352941176,768412.0,21113.21568627451,768412.0,2272959.5588235296,768412.0,2266776.6960784313
767430.0,-2353.1265822784812,768536.0,30294.99019607843,768536.0,2275095.0098039214,768536.0,2545953.568627451,768512.0,21017.382352941175,768512.0,2272892.1764705884,768512.0,2266608.529411765
767508.0,-2323.5443037974683,768636.0,30296.58415841584,768636.0,2275106.0,768636.0,2545930.2277227724,768612.0,20943.647058823528,768612.0,2272831.588235294,768612.0,2266517.294117647
767586.0,-2151.9240506329115,768736.0,30319.752475247526,768736.0,2275100.0594059406,768736.0,2545913.0,768712.0,20869.57843137255,768712.0,2272823.843137255,768712.0,2266464.6960784313
767664.0,-1994.3544303797469,768836.0,30322.752475247526,768836.0,2275092.9306930695,768836.0,2545912.613861386,768812.0,20841.019801980197,768812.0,2272781.6435643565,768812.0,2266419.2277227724
767742.0,-1899.113924050633,768936.0,30322.396039603962,768936.0,2275091.108910891,768936.0,2545909.7425742573,768912.0,20808.666666666668,768912.0,2272769.8039215687,768912.0,2266393.745098039
767820.0,-1756.3544303797469,769036.0,30327.138613861385,769036.0,2275082.6336633665,769036.0,2545901.6039603963,769012.0,20792.0,769012.0,2272760.0,769012.0,2266381.0
767898.0,-1506.8,769136.0,30312.41176470588,769136.0,2275080.2352941176,769136.0,2545895.0588235296,769112.0,20791.019607843136,769112.0,2272762.9411764704,769112.0,2266396.68627451
767976.0,-1218.9367088607596,769236.0,30303.663366336634,769236.0,2275079.0198019804,769236.0,2545902.386138614,769212.0,20804.450980392157,769212.0,2272769.725490196,769212.0,2266431.588235294
768054.0,-1006.493670886076,769336.0,30304.960396039605,769336.0,2275079.079207921,769336.0,2545916.920792079,769312.0,20810.647058823528,769312.0,2272806.705882353,769312.0,2266468.7647058824
768132.0,-936.1645569620254,769436.0,30309.0,769436.0,2275078.920792079,769436.0,2545929.118811881,769412.0,20823.901960784315,769412.0,2272832.9607843137,769412.0,2266545.6470588236
768210.0,-886.4430379746835,769536.0,30313.603960396038,769536.0,2275090.4752475247,769536.0,2545940.7623762377,769512.0,20843.039215686276,769512.0,2272862.9607843137,769512.0,2266623.254901961
768288.0,-808.7974683544304,769636.0,30326.37623762376,769636.0,2275080.079207921,769636.0,2545948.4851485146,769612.0,20870.58823529412,769612.0,2272907.470588235,769612.0,2266719.2352941176
768366.0,-759.506329113924,769736.0,30341.188118811882,769736.0,2275093.0396039602,769736.0,2545945.3960396037,769712.0,20895.78217821782,769712.0,2272945.2376237623,769712.0,2266822.4851485146
768444.0,-689.8607594936709,769836.0,30363.725490196077,769836.0,2275110.8039215687,769836.0,2545940.8039215687,769812.0,20938.235294117647,769812.0,2273001.1764705884,769812.0,2266927.2647058824
768522.0,-490.1625,769936.0,30366.603960396038,769936.0,2275108.3465346536,769936.0,2545966.594059406,769912.0,20970.0,769912.0,2273065.0,769912.0,2267045.5
768600.0,-157.73417721518987,770036.0,30379.47524752475,770036.0,2275116.2673267326,770036.0,2545952.4851485146,770012.0,21005.107843137255,770012.0,2273111.8039215687,770012.0,2267175.0392156863
768678.0,169.15189873417722,770136.0,30387.47524752475,770136.0,2275109.099009901,770136.0,2545959.376237624,770112.0,21050.117647058825,770112.0,2273155.7352941176,770112.0,2267307.205882353
768756.0,402.3164556962025,770236.0,30386.49504950495,770236.0,2275101.8613861385,770236.0,2545978.8415841586,770212.0,21097.950980392157,770212.0,2273219.9901960786,770212.0,2267435.68627451
768834.0,538.7974683544304,770336.0,30381.48514851485,770336.0,2275100.831683168,770336.0,2546025.7524752477,770312.0,21137.20792079208,770312.0,2273297.7524752477,770312.0,2267570.207920792
768912.0,609.620253164557,770436.0,30390.881188118812,770436.0,2275106.217821782,770436.0,2546043.9702970297,770412.0,21165.37254901961,770412.0,2273358.725490196,770412.0,2267676.0196078434
768990.0,736.0,770536.0,30383.313725490196,770536.0,2275088.1960784313,770536.0,2546027.6666666665,770512.0,21211.176470588234,770512.0,2273386.7843137253,770512.0,2267782.254901961
769068.0,1002.5822784810127,770636.0,30404.029702970296,770636.0,2275088.108910891,770636.0,2546049.297029703,770612.0,21245.058823529413,770612.0,2273416.705882353,770612.0,2267882.1764705884
769146.0,1303.4125,770736.0,30414.128712871287,770736.0,2275087.871287129,770736.0,2546023.168316832,770712.0,21288.0,770712.0,2273452.3921568627,770712.0,2267956.9803921566
769224.0,1325.4430379746836,770836.0,30395.79207920792,770836.0,2275105.891089109,770836.0,2546020.3564356435,770812.0,21331.333333333332,770812.0,2273482.0,770812.0,2268034.0
769302.0,911.0379746835443,770936.0,30400.742574257427,770936.0,2275098.9603960398,770936.0,2546002.782178218,770912.0,21365.91089108911,770912.0,2273512.5643564356,770912.0,2268095.9801980196
769380.0,332.2658227848101,771036.0,30404.58415841584,771036.0,2275090.920792079,771036.0,2546015.495049505,771012.0,21389.107843137255,771012.0,2273524.0,771012.0,2268100.617647059
769458.0,-3.734177215189902,771136.0,30404.831683168315,771136.0,2275077.4851485146,771136.0,2546031.2574257427,771112.0,21423.79411764706,771112.0,2273509.794117647,771112.0,2268094.8529411764
769536.0,-180.29113924050634,771236.0,30423.764705882353,771236.0,2275076.3529411764,771236.0,2546034.0588235296,771212.0,21447.57843137255,771212.0,2273493.225490196,771212.0,2268081.6470588236
769614.0,-578.8987341772151,771336.0,30423.78217821782,771336.0,2275091.7227722774,771336.0,2546041.405940594,771312.0,21462.99019607843,771312.0,2273471.8039215687,771312.0,2268045.970588235
769692.0,-1222.7974683544303,771436.0,30440.445544554455,771436.0,2275075.00990099,771436.0,2546037.0693069305,771412.0,21477.70588235294,771412.0,2273456.088235294,771412.0,2267985.088235294
769770.0,-1689.8,771536.0,30445.950495049507,771536.0,2275114.7326732674,771536.0,2546050.4554455443,771512.0,21477.607843137255,771512.0,2273430.3529411764,771512.0,2267931.5098039214
769848.0,-1622.493670886076,771636.0,30457.762376237624,771636.0,2275099.9306930695,771636.0,2546079.2772277226,771612.0,21487.549019607843,771612.0,2273403.725490196,771612.0,2267910.362745098
769926.0,-1180.493670886076,771736.0,30468.647058823528,771736.0,2275100.7647058824,771736.0,2546083.1764705884,771712.0,21496.455445544554,771712.0,2273406.594059406,771712.0,2267888.8217821782
770004.0,-866.5949367088608,771836.0,30479.673267326732,771836.0,2275129.831683168,771836.0,2546086.5544554456,771812.0,21494.941176470587,771812.0,2273414.0392156863,771812.0,2267870.5098039214
770082.0,-852.2784810126582,771936.0,30496.237623762376,771936.0,2275151.128712871,771936.0,2546099.881188119,771912.0,21490.941176470587,771912.0,2273406.3529411764,771912.0,2267872.8235294116
770160.0,-988.3544303797469,772036.0,30503.980198019803,772036.0,2275187.425742574,772036.0,2546096.1386138615,772012.0,21489.313725490196,772012.0,2273412.6274509802,772012.0,2267885.0196078434
770238.0,-1087.860759493671,772136.0,30503.247524752474,772136.0,2275159.1881188117,772136.0,2546103.1485148515,772112.0,21500.882352941175,772112.0,2273424.5490196077,772112.0,2267902.901960784
770316.0,-1033.3291139240507,772236.0,30528.0,772236.0,2275178.0,772236.0,2546118.0,772212.0,21512.58823529412,772212.0,2273417.529411765,772212.0,2267904.588235294
770394.0,-897.2278481012659,772336.0,30538.89108910891,772336.0,2275204.7326732674,772336.0,2546132.8514851485,772312.0,21523.176470588234,772312.0,2273416.745098039,772312.0,2267917.9215686275
770472.0,-793.75,772436.0,30552.58823529412,772436.0,2275205.970588235,772436.0,2546137.8529411764,772412.0,21525.0,772412.0,2273434.5445544557,772412.0,2267960.6435643565
770550.0,-757.6582278481013,772536.0,30564.52475247525,772536.0,2275190.6336633665,772536.0,2546161.0495049506,772512.0,21532.254901960783,772512.0,2273454.8235294116,772512.0,2267989.225490196
770628.0,-785.0253164556962,772636.0,30579.257425742573,772636.0,2275174.792079208,772636.0,2546168.6534653464,772612.0,21551.176470588234,772612.0,2273462.3235294116,772612.0,2268043.588235294
770706.0,-814.0379746835443,772736.0,30609.158415841583,772736.0,2275176.8217821782,772736.0,2546196.2772277226,772712.0,21567.852941176472,772712.0,2273499.529411765,772712.0,2268098.205882353
770784.0,-803.5569620253165,772836.0,30609.138613861385,772836.0,2275192.8217821782,772836.0,2546215.6831683167,772812.0,21585.29411764706,772812.0,2273538.0784313725,772812.0,2268160.088235294
770862.0,-748.2658227848101,772936.0,30614.52475247525,772936.0,2275192.1584158414,772936.0,2546207.792079208,772912.0,21608.603960396038,772912.0,2273561.7623762377,772912.0,2268251.9702970297
770940.0,-692.367088607595,773036.0,30648.70297029703,773036.0,2275207.4851485146,773036.0,2546220.663366337,773012.0,21627.745098039217,773012.0,2273593.9607843137,773012.0,2268322.1764705884
771018.0,-697.7848101265823,773136.0,30653.80198019802,773136.0,2275200.891089109,773136.0,2546268.8514851485,773112.0,21644.686274509804,773112.0,2273620.862745098,773112.0,2268374.843137255
771096.0,-756.9375,773236.0,30685.188118811882,773236.0,2275195.5445544557,773236.0,2546272.217821782,773212.0,21675.117647058825,773212.0,2273646.9411764704,773212.0,2268443.9411764704
771174.0,-828.2405063291139,773336.0,30697.811881188118,773336.0,2275211.7425742573,773336.0,2546268.4752475247,773312.0,21690.196078431374,773312.0,2273676.862745098,773312.0,2268513.4509803923
771252.0,-842.4430379746835,773436.0,30710.21568627451,773436.0,2275220.901960784,773436.0,2546298.1960784313,773412.0,21724.158415841583,773412.0,2273688.712871287,773412.0,2268573.5247524753
771330.0,-769.9113924050633,773536.0,30713.70297029703,773536.0,2275214.336633663,773536.0,2546316.623762376,773512.0,21743.79411764706,773512.0,2273729.029411765,773512.0,2268617.0392156863
771408.0,-680.1139240506329,773636.0,30760.287128712873,773636.0,2275232.3564356435,773636.0,2546337.5148514854,773612.0,21760.333333333332,773612.0,2273754.6666666665,773612.0,2268679.3333333335
771486.0,-572.5189873417721,773736.0,30769.831683168315,773736.0,2275235.168316832,773736.0,2546337.673267327,773712.0,21786.117647058825,773712.0,2273775.6470588236,773712.0,2268717.911764706
771564.0,-422.275,773836.0,30779.039603960395,773836.0,2275243.217821782,773836.0,2546365.7623762377,773812.0,21813.603960396038,773812.0,2273793.831683168,773812.0,2268792.5346534653
771642.0,-253.39240506329116,773936.0,30804.544554455446,773936.0,2275252.306930693,773936.0,2546380.118811881,773912.0,21840.352941176472,773912.0,2273817.705882353,773912.0,2268838.0
771720.0,-112.69620253164557,774036.0,30817.21782178218,774036.0,2275259.613861386,774036.0,2546390.0198019804,774012.0,21861.529411764706,774012.0,2273854.0784313725,774012.0,2268903.7843137253
771798.0,-125.30379746835443,774136.0,30848.30693069307,774136.0,2275274.4653465347,774136.0,2546414.1782178218,774112.0,21895.56862745098,774112.0,2273866.8235294116,774112.0,2268963.431372549
771876.0,-305.3164556962025,774236.0,30879.465346534653,774236.0,2275273.306930693,774236.0,2546420.0,774212.0,21915.0,774212.0,2273902.117647059,774212.0,2269042.411764706
771954.0,-509.3924050632911,774336.0,30904.534653465347,774336.0,2275289.7623762377,774336.0,2546443.168316832,774312.0,21932.21568627451,774312.0,2273936.5490196077,774312.0,2269099.6274509802
772032.0,-728.1772151898734,774436.0,30913.774509803923,774436.0,2275292.7352941176,774436.0,2546468.117647059,774412.0,21962.356435643564,774412.0,2273950.8514851485,774412.0,2269165.425742574
772110.0,-1018.7341772151899,774536.0,30923.91089108911,774536.0,2275297.198019802,774536.0,2546485.1386138615,774512.0,21980.37254901961,774512.0,2273993.2156862747,774512.0,2269236.4901960786
772188.0,-1233.875,774636.0,30924.069306930694,774636.0,2275296.0693069305,774636.0,2546481.673267327,774612.0,22017.62745098039,774612.0,2274014.7843137253,774612.0,2269285.5098039214
772266.0,-1105.4810126582279,774736.0,30917.940594059404,774736.0,2275285.6039603963,774736.0,2546472.495049505,774712.0,22044.20588235294,774712.0,2274036.3529411764,774712.0,2269329.6764705884
772344.0,-565.0253164556962,774836.0,30903.168316831685,774836.0,2275282.712871287,774836.0,2546447.1881188117,774812.0,22065.92156862745,774812.0,2274057.9215686275,774812.0,2269398.5196078434
772422.0,104.48101265822783,774936.0,30864.257425742573,774936.0,2275272.4554455443,774936.0,2546413.3960396037,774912.0,22092.147058823528,774912.0,2274099.9803921566,774912.0,2269471.8529411764
772500.0,535.5443037974684,775036.0,30830.78431372549,775036.0,2275248.098039216,775036.0,2546372.117647059,775012.0,22099.470588235294,775012.0,2274124.882352941,775012.0,2269539.911764706
772578.0,662.1139240506329,775136.0,30783.62376237624,775136.0,2275241.693069307,775136.0,2546332.415841584,775112.0,22135.686274509804,775112.0,2274141.274509804,775112.0,2269570.088235294
772656.0,815.1518987341772,775236.0,30743.10891089109,775236.0,2275230.3960396037,775236.0,2546298.7722772276,775212.0,22146.107843137255,775212.0,2274149.1078431373,775212.0,2269605.2843137253
772734.0,1130.0506329113923,775336.0,30692.79207920792,775336.0,2275212.891089109,775336.0,2546252.0594059406,775312.0,22183.178217821784,775312.0,2274137.079207921,775312.0,2269559.1782178218
772812.0,1187.9240506329113,775436.0,30654.62376237624,775436.0,2275190.910891089,775436.0,2546222.702970297,775412.0,22186.470588235294,775412.0,2274086.098039216,775412.0,2269439.705882353
772890.0,814.275,775536.0,30615.851485148516,775536.0,2275179.4653465347,775536.0,2546178.3465346536,775512.0,22198.352941176472,775512.0,2273995.470588235,775512.0,2269220.529411765
772968.0,464.8101265822785,775636.0,30573.676470588234,775636.0,2275168.7352941176,775636.0,2546141.794117647,775612.0,22179.29411764706,775612.0,2273862.2352941176,775612.0,2268923.156862745
773046.0,563.8481012658228,775736.0,30533.841584158417,775736.0,2275159.9801980196,775736.0,2546113.0693069305,775712.0,22143.41176470588,775712.0,2273699.882352941,775712.0,2268559.8235294116
773124.0,917.8354430379746,775836.0,30503.148514851484,775836.0,2275140.1782178218,775836.0,2546078.0198019804,775812.0,22047.823529411766,775812.0,2273546.7647058824,775812.0,2268190.2352941176
773202.0,911.1518987341772,775936.0,30481.90099009901,775936.0,2275129.168316832,775936.0,2546055.405940594,775912.0,21894.333333333332,775912.0,2273388.0588235296,775912.0,2267840.470588235
773280.0,375.4556962025316,776036.0,30448.73267326733,776036.0,2275120.2376237623,776036.0,2546027.0297029703,776012.0,21712.43137254902,776012.0,2273227.745098039,776012.0,2267506.5098039214
773358.0,-111.9873417721519,776136.0,30430.558823529413,776136.0,2275107.411764706,776136.0,2545999.382352941,776112.0,21511.72277227723,776112.0,2273085.336633663,776112.0,2267192.297029703
773436.0,-158.46835443037975,776236.0,30409.762376237624,776236.0,2275098.099009901,776236.0,2545995.900990099,776212.0,21323.225490196077,776212.0,2272956.901960784,776212.0,2266912.274509804
773514.0,-160.64556962025316,776336.0,30388.79207920792,776336.0,2275095.0693069305,776336.0,2546002.1386138615,776312.0,21156.735294117647,776312.0,2272845.617647059,776312.0,2266682.882352941
773592.0,-500.9493670886076,776436.0,30384.950495049507,776436.0,2275092.8514851485,776436.0,2545984.584158416,776412.0,21019.92156862745,776412.0,2272742.029411765,776412.0,2266479.0
773670.0,-953.7594936708861,776536.0,30372.673267326732,776536.0,2275090.0,776536.0,2545975.2376237623,776512.0,20903.352941176472,776512.0,2272656.931372549,776512.0,2266317.8725490198
773748.0,-1161.7848101265822,776636.0,30362.0,776636.0,2275087.4752475247,776636.0,2545976.9405940594,776612.0,20808.264705882353,776612.0,2272614.794117647,776612.0,2266180.7647058824
773826.0,-1184.9493670886077,776736.0,30367.392156862745,776736.0,2275081.0784313725,776736.0,2545964.6274509802,776712.0,20741.50980392157,776712.0,2272588.656862745,776712.0,2266087.931372549
773904.0,-1207.3164556962026,776836.0,30367.29702970297,776836.0,2275086.0297029703,776836.0,2545956.099009901,776812.0,20689.79207920792,776812.0,2272564.1485148515,776812.0,2266029.4554455443
773982.0,-1009.3417721518987,776936.0,30361.0,776936.0,2275089.4851485146,776936.0,2545958.1881188117,776912.0,20657.62745098039,776912.0,2272533.3921568627,776912.0,2265998.470588235
774060.0,-517.9375,777036.0,30365.554455445545,777036.0,2275084.2772277226,777036.0,2545968.920792079,777012.0,20635.823529411766,777012.0,2272526.882352941,777012.0,2265987.6078431373
774138.0,-321.8101265822785,777136.0,30371.0,777136.0,2275085.663366337,777136.0,2545981.3465346536,777112.0,20629.235294117647,777112.0,2272533.9411764704,777112.0,2266007.8235294116
774216.0,-1206.367088607595,777236.0,30376.663366336634,777236.0,2275096.198019802,777236.0,2545993.2277227724,777212.0,20632.49019607843,777212.0,2272541.156862745,777212.0,2266058.568627451
774294.0,-2509.6962025316457,777336.0,30391.166666666668,777336.0,2275106.9411764704,777336.0,2546005.0588235296,777312.0,20637.882352941175,777312.0,2272549.0,777312.0,2266121.31372549
774372.0,-472.37974683544303,777436.0,30407.90099009901,777436.0,2275108.118811881,777436.0,2546016.4653465347,777412.0,20655.29411764706,777412.0,2272569.705882353,777412.0,2266197.9411764704
774450.0,7565.911392405063,777536.0,30424.73267326733,777536.0,2275122.7722772276,777536.0,2546031.3168316833,777512.0,20681.529411764706,777512.0,2272607.431372549,777512.0,2266267.901960784
774528.0,17075.0,777636.0,30438.08910891089,777636.0,2275128.5445544557,777636.0,2546039.7524752477,777612.0,20705.841584158417,777612.0,2272641.118811881,777612.0,2266332.7227722774
774606.0,19372.54430379747,777736.0,30453.158415841583,777736.0,2275126.8613861385,777736.0,2546040.5247524753,777712.0,20730.333333333332,777712.0,2272676.3333333335,777712.0,2266428.745098039
774684.0,12258.54430379747,777836.0,30471.813725490196,777836.0,2275124.3529411764,777836.0,2546050.098039216,777812.0,20764.06862745098,777812.0,2272726.1470588236,777812.0,2266547.6470588236
774762.0,2726.8999999999996,777936.0,30475.69306930693,777936.0,2275131.306930693,777936.0,2546056.782178218,777912.0,20799.91176470588,777912.0,2272786.6764705884,777912.0,2266671.5588235296
774840.0,-2209.683544303797,778036.0,30478.68316831683,778036.0,2275131.3465346536,778036.0,2546078.326732673,778012.0,20835.245098039217,778012.0,2272839.205882353,778012.0,2266798.245098039
774918.0,-2144.0759493670885,778136.0,30477.09900990099,778136.0,2275133.3465346536,778136.0,2546073.405940594,778112.0,20870.441176470587,778112.0,2272905.8725490198,778112.0,2266927.2647058824
774996.0,-1318.3544303797469,778236.0,30474.920792079207,778236.0,2275132.6336633665,778236.0,2546076.7722772276,778212.0,20912.941176470587,778212.0,2272958.1764705884,778212.0,2267061.8235294116
775074.0,-1862.0253164556962,778336.0,30492.61386138614,778336.0,2275129.702970297,778336.0,2546095.702970297,778312.0,20955.5,778312.0,2273010.5392156863,778312.0,2267202.1666666665
775152.0,-2413.1392405063293,778436.0,30494.0,778436.0,2275129.411764706,778436.0,2546084.529411765,778412.0,20999.61386138614,778412.0,2273064.7722772276,778412.0,2267309.118811881
775230.0,-2255.772151898734,778536.0,30493.168316831685,778536.0,2275148.9504950494,778536.0,2546083.7722772276,778512.0,21036.647058823528,778512.0,2273103.882352941,778512.0,2267390.9607843137
775308.0,-2211.25,778636.0,30492.069306930694,778636.0,2275140.198019802,778636.0,2546087.5247524753,778612.0,21084.62745098039,778612.0,2273143.7647058824,778612.0,2267478.8235294116
775386.0,-2469.6582278481014,778736.0,30496.029702970296,778736.0,2275141.6039603963,778736.0,2546084.693069307,778712.0,21113.41176470588,778712.0,2273191.529411765,778712.0,2267583.1764705884
775464.0,-2660.0506329113923,778836.0,30501.72277227723,778836.0,2275151.2574257427,778836.0,2546101.5247524753,778812.0,21154.13725490196,778812.0,2273223.9803921566,778812.0,2267646.9803921566
775542.0,-2550.6582278481014,778936.0,30509.287128712873,778936.0,2275149.9504950494,778936.0,2546097.089108911,778912.0,21195.70588235294,778912.0,2273255.9411764704,778912.0,2267676.3921568627
775620.0,-2159.9367088607596,779036.0,30514.21568627451,779036.0,2275154.8039215687,779036.0,2546108.8039215687,779012.0,21221.0,779012.0,2273269.588235294,779012.0,2267678.882352941
775698.0,-1684.4430379746836,779136.0,30537.336633663366,779136.0,2275158.089108911,779136.0,2546115.623762376,779112.0,21253.91089108911,779112.0,2273278.7425742573,779112.0,2267686.168316832
775776.0,-1307.2025316455697,779236.0,30535.356435643564,779236.0,2275152.1485148515,779236.0,2546122.3564356435,779212.0,21281.470588235294,779212.0,2273287.411764706,779212.0,2267699.911764706
775854.0,-1153.3291139240507,779336.0,30553.37623762376,779336.0,2275169.0495049506,779336.0,2546143.574257426,779312.0,21292.29411764706,779312.0,2273283.745098039,779312.0,2267683.274509804
775932.0,-1166.875,779436.0,30555.712871287127,779436.0,2275153.6039603963,779436.0,2546156.6831683167,779412.0,21311.99019607843,779412.0,2273281.029411765,779412.0,2267689.6274509802
776010.0,-1171.3417721518988,779536.0,30560.851485148516,779536.0,2275162.5148514854,779536.0,2546148.5247524753,779512.0,21343.676470588234,779512.0,2273271.6764705884,779512.0,2267668.411764706
776088.0,-1043.240506329114,779636.0,30571.742574257427,779636.0,2275170.792079208,779636.0,2546163.0594059406,779612.0,21331.303921568626,779612.0,2273257.382352941,779612.0,2267650.6960784313
776166.0,-801.9367088607595,779736.0,30582.470588235294,779736.0,2275175.4411764704,779736.0,2546174.294117647,779712.0,21348.950980392157,779712.0,2273249.343137255,779712.0,2267632.2647058824
776244.0,-564.5189873417721,779836.0,30593.831683168315,779836.0,2275177.2277227724,779836.0,2546178.702970297,779812.0,21348.970588235294,779812.0,2273255.705882353,779812.0,2267617.794117647
776322.0,-411.82278481012656,779936.0,30612.168316831685,779936.0,2275173.0693069305,779936.0,2546196.287128713,779912.0,21381.118811881188,779912.0,2273245.99009901,779912.0,2267610.881188119
776400.0,-379.8,780036.0,30607.960396039605,780036.0,2275181.7623762377,780036.0,2546190.5643564356,780012.0,21393.0,780012.0,2273245.0,780012.0,2267599.0
776478.0,-422.6075949367089,780136.0,30626.37623762376,780136.0,2275189.4851485146,780136.0,2546188.881188119,780112.0,21394.960784313724,780112.0,2273269.5098039214,780112.0,2267609.7843137253
776556.0,-397.24050632911394,780236.0,30647.019801980197,780236.0,2275202.198019802,780236.0,2546205.4653465347,780212.0,21396.92156862745,780212.0,2273271.9215686275,780212.0,2267632.098039216
776634.0,-212.45569620253164,780336.0,30638.725490196077,780336.0,2275193.4509803923,780336.0,2546201.882352941,780312.0,21420.529411764706,780312.0,2273290.8235294116,780312.0,2267674.411764706
776712.0,90.87341772151899,780436.0,30660.188118811882,780436.0,2275187.297029703,780436.0,2546224.5346534653,780412.0,21419.235294117647,780412.0,2273306.745098039,780412.0,2267722.156862745
776790.0,438.03797468354435,780536.0,30680.435643564357,780536.0,2275192.99009901,780536.0,2546234.7326732674,780512.0,21429.823529411766,780512.0,2273331.4509803923,780512.0,2267767.4901960786
776868.0,806.7341772151899,780636.0,30708.19801980198,780636.0,2275211.8415841586,780636.0,2546268.910891089,780612.0,21424.823529411766,780612.0,2273354.294117647,780612.0,2267809.9411764704
776946.0,1166.379746835443,780736.0,30713.653465346535,780736.0,2275208.831683168,780736.0,2546291.0594059406,780712.0,21433.58415841584,780712.0,2273371.8118811883,780712.0,2267883.831683168
777024.0,1405.925,780836.0,30735.118811881188,780836.0,2275235.8613861385,780836.0,2546293.217821782,780812.0,21452.91176470588,780812.0,2273370.588235294,780812.0,2267931.529411765
777102.0,1437.4810126582279,780936.0,30741.264705882353,780936.0,2275229.117647059,780936.0,2546304.2647058824,780912.0,21470.166666666668,780912.0,2273425.0,780912.0,2268004.6666666665
777180.0,1268.873417721519,781036.0,30767.735294117647,781036.0,2275240.882352941,781036.0,2546330.7352941176,781012.0,21497.9,781012.0,2273434.34,781012.0,2268062.82
777258.0,1000.3164556962025,781136.0,30777.80198019802,781136.0,2275237.079207921,781136.0,2546345.702970297,781112.0,21535.721153846152,781112.0,2273487.471153846,781112.0,2268127.0673076925
777336.0,670.2911392405063,781236.0,30800.31683168317,781236.0,2275260.287128713,781236.0,2546356.673267327,781212.0,21545.58,781212.0,2273519.17,781212.0,2268188.4
777414.0,152.51898734177217,781336.0,30825.0099009901,781336.0,2275268.6831683167,781336.0,2546404.0594059406,781312.0,21569.548076923078,781312.0,2273535.394230769,781312.0,2268251.1346153845
777492.0,-559.4303797468355,781436.0,30820.29702970297,781436.0,2275264.2475247523,781436.0,2546406.0,781412.0,21595.75,781412.0,2273559.25,781412.0,2268312.0
777570.0,-1183.625,781536.0,30856.1,781536.0,2275270.65,781536.0,2546408.85,781512.0,21623.75,781512.0,2273594.5,781512.0,2268370.5
777648.0,-1496.4556962025317,781636.0,30876.44660194175,781636.0,2275278.3786407765,781636.0,2546429.291262136,781612.0,21676.59,781612.0,2273657.72,781612.0,2268504.48
777726.0,-1553.873417721519,781736.0,30897.32,781736.0,2275290.96,781736.0,2546456.76,781712.0,21697.40776699029,781712.0,2273690.4368932038,781712.0,2268578.9417475727
777804.0,-1539.7848101265822,781836.0,30926.058823529413,781836.0,2275302.8235294116,781836.0,2546464.411764706,781812.0,21716.6,781812.0,2273717.32,781812.0,2268635.0
777882.0,-1529.2278481012659,781936.0,30938.0,781936.0,2275302.2,781936.0,2546479.4,781912.0,21751.76923076923,781912.0,2273745.269230769,781912.0,2268713.1153846155
777960.0,-1442.8227848101267,782036.0,30965.470588235294,782036.0,2275302.882352941,782036.0,2546496.0,782012.0,21783.313725490196,782012.0,2273780.470588235,782012.0,2268809.3725490198
778038.0,-1252.8,782136.0,30973.334975369457,782136.0,2275310.369458128,782136.0,2546513.172413793,782112.0,21814.274509803923,782112.0,2273815.0588235296,782112.0,2268879.8235294116
778116.0,-1121.253164556962,782236.0,30978.26108374384,782236.0,2275318.7438423648,782236.0,2546530.4137931033,782212.0,21837.41176470588,782212.0,2273841.529411765,782212.0,2268945.705882353
778194.0,-1168.8101265822784,782336.0,30994.3,782336.0,2275329.35,782336.0,2546536.4,782312.0,21857.20792079208,782312.0,2273873.3960396037,782312.0,2269018.920792079
778272.0,-1248.5569620253164,782436.0,30997.0,782436.0,2275325.1666666665,782436.0,2546530.3333333335,782412.0,21879.29411764706,782412.0,2273911.2352941176,782412.0,2269089.117647059
778350.0,-1309.0759493670887,782536.0,30987.87,782536.0,2275319.02,782536.0,2546538.96,782512.0,21913.803921568626,782512.0,2273950.6470588236,782512.0,2269165.294117647
778428.0,-1525.6835443037974,782636.0,30979.49019607843,782636.0,2275310.6764705884,782636.0,2546520.656862745,782612.0,21953.02,782612.0,2273982.19,782612.0,2269244.81
778506.0,-1795.4556962025317,782736.0,30943.98,782736.0,2275307.38,782736.0,2546496.56,782712.0,21981.740384615383,782712.0,2274006.25,782712.0,2269304.4423076925
778584.0,-1760.0,782836.0,30926.563106796115,782836.0,2275303.854368932,782836.0,2546449.5339805824,782812.0,21998.323529411766,782812.0,2274031.0098039214,782812.0,2269360.6274509802
778662.0,-1321.3544303797469,782936.0,30877.98,782936.0,2275291.3,782936.0,2546421.62,782912.0,22030.647058823528,782912.0,2274042.617647059,782912.0,2269397.9215686275
778740.0,-839.1772151898734,783036.0,30836.70588235294,783036.0,2275269.6470588236,783036.0,2546374.1764705884,783012.0,22064.764705882353,783012.0,2274027.7647058824,783012.0,2269358.411764706
778818.0,-714.3924050632911,783136.0,30783.16,783136.0,2275258.68,783136.0,2546328.32,783112.0,22079.346534653465,783112.0,2273982.900990099,783112.0,2269235.4752475247
778896.0,-850.1518987341772,783236.0,30762.29411764706,783236.0,2275248.8039215687,783236.0,2546285.9607843137,783212.0,22086.529411764706,783212.0,2273898.0588235296,783212.0,2269028.2352941176
778974.0,-879.493670886076,783336.0,30708.49019607843,783336.0,2275233.6666666665,783336.0,2546260.4901960786,783312.0,22064.37254901961,783312.0,2273769.8235294116,783312.0,2268739.0196078434
779052.0,-780.2658227848101,783436.0,30713.237623762376,783436.0,2275214.7425742573,783436.0,2546208.663366337,783412.0,22025.29411764706,783412.0,2273624.3333333335,783412.0,2268405.2352941176
779130.0,-843.1518987341772,783536.0,30690.663366336634,783536.0,2275192.831683168,783536.0,2546175.9405940594,783512.0,21941.764705882353,783512.0,2273480.0588235296,783512.0,2268066.411764706
779208.0,-1072.225,783636.0,30655.51485148515,783636.0,2275188.079207921,783636.0,2546159.6039603963,783612.0,21817.333333333332,783612.0,2273324.6666666665,783612.0,2267736.0
779286.0,-1255.4177215189873,783736.0,30648.049504950493,783736.0,2275179.4356435644,783736.0,2546138.6039603963,783712.0,21656.07843137255,783712.0,2273192.0392156863,783712.0,2267416.8235294116
779364.0,-1352.4050632911392,783836.0,30611.29702970297,783836.0,2275166.920792079,783836.0,2546118.881188119,783812.0,21471.176470588234,783812.0,2273067.2352941176,783812.0,2267128.294117647
779442.0,-1347.0506329113923,783936.0,30591.029411764706,783936.0,2275168.911764706,783936.0,2546114.31372549,783912.0,21297.08910891089,783912.0,2272930.405940594,783912.0,2266859.574257426
779520.0,-1243.0,784036.0,30564.257425742573,784036.0,2275156.5544554456,784036.0,2546106.6336633665,784012.0,21142.941176470587,784012.0,2272810.6470588236,784012.0,2266632.617647059
779598.0,-1086.5569620253164,784136.0,30540.49504950495,784136.0,2275154.336633663,784136.0,2546083.623762376,784112.0,21011.07843137255,784112.0,2272718.245098039,784112.0,2266426.7352941176
779676.0,-926.4303797468355,784236.0,30523.148514851484,784236.0,2275150.5148514854,784236.0,2546071.7524752477,784212.0,20900.803921568626,784212.0,2272627.794117647,784212.0,2266249.5196078434
779754.0,-818.2025316455696,784336.0,30522.752475247526,784336.0,2275150.297029703,784336.0,2546069.1584158414,784312.0,20816.470588235294,784312.0,2272567.882352941,784312.0,2266141.411764706
779832.0,-719.85,784436.0,30525.20588235294,784436.0,2275154.794117647,784436.0,2546056.637254902,784412.0,20761.754901960783,784412.0,2272520.343137255,784412.0,2266049.3333333335
779910.0,-636.0,784536.0,30521.079207920793,784536.0,2275149.574257426,784536.0,2546054.2574257427,784512.0,20713.666666666668,784512.0,2272498.6666666665,784512.0,2265990.3333333335
779988.0,-624.1518987341772,784636.0,30517.27722772277,784636.0,2275149.594059406,784636.0,2546064.3168316833,784612.0,20694.058823529413,784612.0,2272490.088235294,784612.0,2265972.882352941
780066.0,-709.7721518987341,784736.0,30516.564356435643,784736.0,2275144.5346534653,784736.0,2546070.693069307,784712.0,20676.49019607843,784712.0,2272481.294117647,784712.0,2265982.0784313725
780144.0,-872.6582278481013,784836.0,30529.19801980198,784836.0,2275145.207920792,784836.0,2546074.7722772276,784812.0,20673.0,784812.0,2272498.7425742573,784812.0,2266014.6831683167
780222.0,-950.2025316455696,784936.0,30547.168316831685,784936.0,2275158.623762376,784936.0,2546094.9702970297,784912.0,20674.37254901961,784912.0,2272517.2156862747,784912.0,2266058.882352941
780300.0,-829.4177215189874,785036.0,30561.41176470588,785036.0,2275164.470588235,785036.0,2546147.0588235296,785012.0,20689.58823529412,785012.0,2272557.0196078434,785012.0,2266120.137254902
780378.0,-470.7848101265823,785136.0,30573.148514851484,785136.0,2275161.9405940594,785136.0,2546184.6336633665,785112.0,20721.70588235294,785112.0,2272571.411764706,785112.0,2266210.0588235296
780456.0,74.60000000000002,785236.0,30589.61386138614,785236.0,2275163.0297029703,785236.0,2546189.504950495,785212.0,20749.745098039217,785212.0,2272612.156862745,785212.0,2266311.31372549
780534.0,616.6835443037974,785336.0,30603.970297029704,785336.0,2275169.4653465347,785336.0,2546198.910891089,785312.0,20768.686274509804,785312.0,2272666.31372549,785312.0,2266419.1764705884
780612.0,1030.113924050633,785436.0,30618.158415841583,785436.0,2275174.9405940594,785436.0,2546215.2772277226,785412.0,20803.0,785412.0,2272732.0,785412.0,2266528.0
780690.0,1266.0632911392404,785536.0,30627.148514851484,785536.0,2275169.871287129,785536.0,2546219.198019802,785512.0,20851.039215686276,785512.0,2272769.254901961,785512.0,2266648.588235294
780768.0,1250.2025316455697,785636.0,30632.29411764706,785636.0,2275162.4607843137,785636.0,2546215.4607843137,785612.0,20894.69306930693,785612.0,2272851.504950495,785612.0,2266805.2772277226
780846.0,921.1898734177215,785736.0,30646.0099009901,785736.0,2275164.336633663,785736.0,2546215.108910891,785712.0,20937.843137254902,785712.0,2272907.254901961,785712.0,2266959.3039215687
780924.0,361.8607594936709,785836.0,30655.356435643564,785836.0,2275159.4653465347,785836.0,2546212.693069307,785812.0,20972.598039215685,785812.0,2272967.745098039,785812.0,2267092.7352941176
781002.0,-145.0,785936.0,30656.742574257427,785936.0,2275159.5148514854,785936.0,2546208.4455445544,785912.0,21024.235294117647,785912.0,2273051.3235294116,785912.0,2267250.617647059
781080.0,-431.0,786036.0,30648.08910891089,786036.0,2275163.9306930695,786036.0,2546208.326732673,786012.0,21072.71568627451,786012.0,2273112.529411765,786012.0,2267389.901960784
781158.0,-522.9240506329114,786136.0,30649.68316831683,786136.0,2275160.900990099,786136.0,2546209.3465346536,786112.0,21113.774509803923,786112.0,2273170.4803921566,786112.0,2267501.8529411764
781236.0,-568.4177215189874,786236.0,30659.980198019803,786236.0,2275163.4752475247,786236.0,2546203.6039603963,786212.0,21146.29411764706,786212.0,2273225.7647058824,786212.0,2267628.588235294
781314.0,-776.1645569620254,786336.0,30659.558823529413,786336.0,2275153.529411765,786336.0,2546213.3235294116,786312.0,21185.50495049505,786312.0,2273268.504950495,786312.0,2267734.6831683167
781392.0,-1080.873417721519,786436.0,30656.19801980198,786436.0,2275160.3960396037,786436.0,2546223.405940594,786412.0,21228.235294117647,786412.0,2273303.0,786412.0,2267823.470588235
781470.0,-1219.6708860759493,786536.0,30661.069306930694,786536.0,2275171.5643564356,786536.0,2546211.6435643565,786512.0,21264.941176470587,786512.0,2273325.0784313725,786512.0,2267878.3921568627
781548.0,-1209.2,786636.0,30670.27722772277,786636.0,2275192.207920792,786636.0,2546217.584158416,786612.0,21313.56862745098,786612.0,2273348.6078431373,786612.0,2267899.7647058824
781626.0,-1148.1518987341772,786736.0,30684.0,786736.0,2275224.386138614,786736.0,2546228.6534653464,786712.0,21340.29411764706,786712.0,2273349.411764706,786712.0,2267907.588235294
781704.0,-911.9873417721519,786836.0,30688.247524752474,786836.0,2275228.1386138615,786836.0,2546229.2673267326,786812.0,21362.882352941175,786812.0,2273345.0196078434,786812.0,2267910.4901960786
781782.0,-510.1392405063291,786936.0,30696.686274509804,786936.0,2275215.254901961,786936.0,2546242.274509804,786912.0,21383.50980392157,786912.0,2273344.725490196,786912.0,2267892.862745098
781860.0,-377.30379746835445,787036.0,30695.70297029703,787036.0,2275223.9405940594,787036.0,2546254.217821782,787012.0,21406.821782178216,787012.0,2273342.1485148515,787012.0,2267856.0594059406
781938.0,-1161.7848101265822,787136.0,30699.881188118812,787136.0,2275237.712871287,787136.0,2546253.7326732674,787112.0,21413.303921568626,787112.0,2273322.901960784,787112.0,2267824.5098039214
782016.0,-2122.05,787236.0,30719.48514851485,787236.0,2275235.0594059406,787236.0,2546263.0,787212.0,21429.91176470588,787212.0,2273310.9411764704,787212.0,2267813.294117647
782094.0,-69.22784810126586,787336.0,30738.19801980198,787336.0,2275227.326732673,787336.0,2546267.00990099,787312.0,21431.43137254902,787312.0,2273303.088235294,787312.0,2267776.529411765
782172.0,7142.367088607595,787436.0,30737.029702970296,787436.0,2275221.5445544557,787436.0,2546274.1386138615,787412.0,21435.647058823528,787412.0,2273302.5490196077,787412.0,2267756.725490196
782250.0,15681.772151898735,787536.0,30744.41176470588,787536.0,2275224.774509804,787536.0,2546271.5784313725,787512.0,21443.70588235294,787512.0,2273292.882352941,787512.0,2267751.6764705884
782328.0,18220.886075949365,787636.0,30762.326732673268,787636.0,2275222.8217821782,787636.0,2546294.8118811883,787612.0,21453.774509803923,787612.0,2273287.1960784313,787612.0,2267745.411764706
782406.0,12330.60759493671,787736.0,30775.47524752475,787736.0,2275228.128712871,787736.0,2546289.663366337,787712.0,21444.539215686276,787712.0,2273302.4607843137,787712.0,2267763.245098039
782484.0,3361.7468354430375,787836.0,30774.574257425742,787836.0,2275229.1584158414,787836.0,2546310.623762376,787812.0,21450.366336633662,787812.0,2273309.613861386,787812.0,2267790.9801980196
782562.0,-1976.7721518987341,787936.0,30794.156862745098,787936.0,2275241.274509804,787936.0,2546317.5098039214,787912.0,21464.647058823528,787912.0,2273326.7647058824,787912.0,2267816.3725490198
782640.0,-2444.5,788036.0,30804.960396039605,788036.0,2275229.207920792,788036.0,2546336.0,788012.0,21466.0,788012.0,2273341.9411764704,788012.0,2267842.7647058824
782718.0,-1543.26582278481,788136.0,30818.039603960395,788136.0,2275242.6534653464,788136.0,2546338.3564356435,788112.0,21478.745098039217,788112.0,2273350.1764705884,788112.0,2267872.843137255
782796.0,-1827.4556962025317,788236.0,30838.158415841583,788236.0,2275237.900990099,788236.0,2546350.792079208,788212.0,21498.352941176472,788212.0,2273374.68627451,788212.0,2267917.4509803923
782874.0,-2527.253164556962,788336.0,30843.603960396038,788336.0,2275246.9603960398,788336.0,2546356.336633663,788312.0,21514.0,788312.0,2273397.588235294,788312.0,2267969.0588235296
782952.0,-2467.1518987341774,788436.0,30870.554455445545,788436.0,2275243.3564356435,788436.0,2546366.6336633665,788412.0,21527.058823529413,788412.0,2273421.68627451,788412.0,2268020.254901961
783030.0,-2043.253164556962,788536.0,30873.617647058825,788536.0,2275258.0,788536.0,2546386.0588235296,788512.0,21544.50980392157,788512.0,2273442.862745098,788512.0,2268076.0196078434
783108.0,-1813.3164556962026,788636.0,30871.871287128713,788636.0,2275258.7623762377,788636.0,2546407.326732673,788612.0,21570.882352941175,788612.0,2273463.3529411764,788612.0,2268131.2352941176
783186.0,-1726.0,788736.0,30882.069306930694,788736.0,2275265.0,788736.0,2546412.7722772276,788712.0,21592.843137254902,788712.0,2273502.3725490198,788712.0,2268190.0588235296
783264.0,-1597.493670886076,788836.0,30911.603960396038,788836.0,2275265.801980198,788836.0,2546437.7326732674,788812.0,21606.49019607843,788812.0,2273533.411764706,788812.0,2268251.3725490198
783342.0,-1377.5316455696202,788936.0,30929.176470588234,788936.0,2275274.7843137253,788936.0,2546436.1764705884,788912.0,21622.544554455446,788912.0,2273568.118811881,788912.0,2268310.0198019804
783420.0,-1195.2278481012659,789036.0,30944.0099009901,789036.0,2275283.5247524753,789036.0,2546451.2475247523,789012.0,21657.29411764706,789012.0,2273587.254901961,789012.0,2268381.705882353
783498.0,-1153.987341772152,789136.0,30961.188118811882,789136.0,2275277.336633663,789136.0,2546472.6336633665,789112.0,21687.352941176472,789112.0,2273597.8529411764,789112.0,2268453.911764706
783576.0,-1178.012658227848,789236.0,30984.59405940594,789236.0,2275303.0,789236.0,2546504.2376237623,789212.0,21714.470588235294,789212.0,2273639.205882353,789212.0,2268520.2843137253
783654.0,-1151.9493670886077,789336.0,30999.772277227723,789336.0,2275303.0,789336.0,2546510.7722772276,789312.0,21736.666666666668,789312.0,2273666.529411765,789312.0,2268576.882352941
783732.0,-1104.8,789436.0,31025.257425742573,789436.0,2275303.4554455443,789436.0,2546536.217821782,789412.0,21765.5,789412.0,2273695.9411764704,789412.0,2268648.382352941
783810.0,-1148.5822784810127,789536.0,31038.196078431374,789536.0,2275325.774509804,789536.0,2546547.18627451,789512.0,21782.901960784315,789512.0,2273733.1960784313,789512.0,2268702.0588235296
783888.0,-1251.0759493670887,789636.0,31057.803921568626,789636.0,2275303.225490196,789636.0,2546565.81372549,789612.0,21804.539215686276,789612.0,2273781.5784313725,789612.0,2268789.1666666665
783966.0,-1255.9367088607596,789736.0,31080.544554455446,789736.0,2275327.504950495,789736.0,2546584.623762376,789712.0,21833.445544554455,789712.0,2273790.9504950494,789712.0,2268866.8514851485
784044.0,-987.8354430379748,789836.0,31079.059405940596,789836.0,2275351.287128713,789836.0,2546583.0594059406,789812.0,21865.058823529413,789812.0,2273814.6274509802,789812.0,2268926.31372549
784122.0,-405.1518987341772,789936.0,31079.0,789936.0,2275330.871287129,789936.0,2546573.3960396037,789912.0,21895.058823529413,789912.0,2273856.1764705884,789912.0,2268996.470588235
784200.0,216.7125,790036.0,31045.73267326733,790036.0,2275341.405940594,790036.0,2546544.4851485146,790012.0,21906.274509803923,790012.0,2273889.2352941176,790012.0,2269060.3529411764
784278.0,575.9620253164557,790136.0,31030.831683168315,790136.0,2275325.0693069305,790136.0,2546506.3168316833,790112.0,21945.49019607843,790112.0,2273917.2156862747,790112.0,2269124.6470588236
784356.0,599.3544303797469,790236.0,31001.43137254902,790236.0,2275301.882352941,790236.0,2546461.6078431373,790212.0,21982.70588235294,790212.0,2273953.294117647,790212.0,2269190.411764706
784434.0,464.9113924050633,790336.0,30969.851485148516,790336.0,2275273.584158416,790336.0,2546449.801980198,790312.0,22006.529411764706,790312.0,2273979.0784313725,790312.0,2269278.4509803923
784512.0,459.82278481012656,790436.0,30907.534653465347,790436.0,2275275.504950495,790436.0,2546393.1386138615,790412.0,22039.70588235294,790412.0,2273988.7647058824,790412.0,2269299.588235294
784590.0,642.4303797468355,790536.0,30868.920792079207,790536.0,2275244.8118811883,790536.0,2546348.6831683167,790512.0,22049.529411764706,790512.0,2273983.2352941176,790512.0,2269276.117647059
784668.0,904.1772151898734,790636.0,30839.445544554455,790636.0,2275233.0693069305,790636.0,2546331.663366337,790612.0,22073.843137254902,790612.0,2273935.5490196077,790612.0,2269157.9215686275
784746.0,1076.5125,790736.0,30790.274509803923,790736.0,2275228.5490196077,790736.0,2546279.098039216,790712.0,22070.039603960395,790712.0,2273848.4455445544,790712.0,2268954.5148514854
784824.0,1119.5569620253164,790836.0,30758.30693069307,790836.0,2275216.9306930695,790836.0,2546258.2277227724,790812.0,22071.49019607843,790812.0,2273720.6078431373,790812.0,2268679.4901960786
784902.0,1099.5822784810127,790936.0,30722.019801980197,790936.0,2275210.792079208,790936.0,2546238.326732673,790912.0,22020.50980392157,790912.0,2273581.3921568627,790912.0,2268328.5098039214
784980.0,884.7848101265823,791036.0,30683.564356435643,791036.0,2275197.5247524753,791036.0,2546206.7227722774,791012.0,21924.882352941175,791012.0,2273417.911764706,791012.0,2267970.7352941176
785058.0,457.44303797468353,791136.0,30654.21568627451,791136.0,2275188.4901960786,791136.0,2546180.656862745,791112.0,21799.323529411766,791112.0,2273239.9215686275,791112.0,2267603.382352941
785136.0,-20.20253164556962,791236.0,30645.79207920792,791236.0,2275176.574257426,791236.0,2546171.1881188117,791212.0,21598.343137254902,791212.0,2273085.705882353,791212.0,2267264.6078431373
785214.0,-464.3544303797468,791336.0,30629.158415841583,791336.0,2275158.1584158414,791336.0,2546150.99009901,791312.0,21418.058823529413,791312.0,2272939.1470588236,791312.0,2266941.029411765
785292.0,-788.2,791436.0,30609.356435643564,791436.0,2275150.089108911,791436.0,2546138.9603960398,791412.0,21231.598039215685,791412.0,2272831.431372549,791412.0,2266638.1078431373
785370.0,-959.8,791536.0,30600.366336633662,791536.0,2275153.6336633665,791536.0,2546131.594059406,791512.0,21064.41176470588,791512.0,2272700.4607843137,791512.0,2266370.2843137253
785448.0,-1072.139240506329,791636.0,30586.039603960395,791636.0,2275145.089108911,791636.0,2546125.425742574,791612.0,20913.352941176472,791612.0,2272597.705882353,791612.0,2266149.205882353
785526.0,-1121.1772151898733,791736.0,30559.647058823528,791736.0,2275153.1764705884,791736.0,2546109.098039216,791712.0,20782.435643564357,791712.0,2272497.1584158414,791712.0,2265963.831683168
785604.0,-1184.7088607594937,791836.0,30565.188118811882,791836.0,2275147.4752475247,791836.0,2546098.1386138615,791812.0,20690.352941176472,791812.0,2272430.7647058824,791812.0,2265813.117647059
785682.0,-1367.8481012658228,791936.0,30565.663366336634,791936.0,2275140.386138614,791936.0,2546081.5445544557,791912.0,20625.960784313724,791912.0,2272342.8235294116,791912.0,2265705.8039215687
785760.0,-1507.5189873417721,792036.0,30554.019801980197,792036.0,2275138.287128713,792036.0,2546086.693069307,792012.0,20572.43137254902,792012.0,2272276.9411764704,792012.0,2265639.725490196
785838.0,-1437.7974683544303,792136.0,30553.51485148515,792136.0,2275145.0297029703,792136.0,2546091.702970297,792112.0,20551.823529411766,792112.0,2272229.588235294,792112.0,2265604.8235294116
785916.0,-1280.8101265822784,792236.0,30568.168316831685,792236.0,2275145.920792079,792236.0,2546089.2277227724,792212.0,20546.764705882353,792212.0,2272222.725490196,792212.0,2265571.9215686275
785994.0,-1148.5,792336.0,30583.470588235294,792336.0,2275138.2352941176,792336.0,2546095.4411764704,792312.0,20537.20792079208,792312.0,2272226.9306930695,792312.0,2265576.1881188117
786072.0,-1055.392405063291,792436.0,30584.019801980197,792436.0,2275136.99009901,792436.0,2546112.2673267326,792412.0,20534.71568627451,792412.0,2272250.18627451,792412.0,2265611.774509804
786150.0,-1068.4430379746836,792536.0,30595.72277227723,792536.0,2275143.881188119,792536.0,2546120.9603960398,792512.0,20554.49019607843,792512.0,2272274.31372549,792512.0,2265649.754901961
786228.0,-1131.4810126582279,792636.0,30608.79207920792,792636.0,2275151.504950495,792636.0,2546137.4455445544,792612.0,20577.20588235294,792612.0,2272300.617647059,792612.0,2265721.205882353
786306.0,-1128.1898734177216,792736.0,30620.237623762376,792736.0,2275155.2673267326,792736.0,2546150.4356435644,792712.0,20608.303921568626,792712.0,2272345.470588235,792712.0,2265816.343137255
786384.0,-1018.873417721519,792836.0,30638.72277227723,792836.0,2275150.386138614,792836.0,2546148.6336633665,792812.0,20626.098039215685,792812.0,2272390.1274509802,792812.0,2265897.5196078434
786462.0,-820.1518987341772,792936.0,30650.68316831683,792936.0,2275156.207920792,792936.0,2546156.4356435644,792912.0,20652.70297029703,792912.0,2272428.079207921,792912.0,2265994.4851485146
786540.0,-708.575,793036.0,30651.803921568626,793036.0,2275172.7647058824,793036.0,2546170.1764705884,793012.0,20687.666666666668,793012.0,2272482.117647059,793012.0,2266123.9215686275
786618.0,-774.0632911392405,793136.0,30656.841584158417,793136.0,2275170.6534653464,793136.0,2546169.1584158414,793112.0,20725.70588235294,793112.0,2272546.8235294116,793112.0,2266278.8235294116
786696.0,-877.1772151898734,793236.0,30655.831683168315,793236.0,2275169.168316832,793236.0,2546171.891089109,793212.0,20768.58823529412,793212.0,2272613.2352941176,793212.0,2266435.0
786774.0,-914.0126582278481,793336.0,30666.673267326732,793336.0,2275183.1584158414,793336.0,2546174.1782178218,793312.0,20817.647058823528,793312.0,2272688.568627451,793312.0,2266581.705882353
786852.0,-924.493670886076,793436.0,30671.346534653465,793436.0,2275178.2475247523,793436.0,2546169.2277227724,793412.0,20864.764705882353,793412.0,2272757.2352941176,793412.0,2266731.6470588236
786930.0,-953.9367088607595,793536.0,30670.356435643564,793536.0,2275160.920792079,793536.0,2546174.079207921,793512.0,20907.941176470587,793512.0,2272813.5490196077,793512.0,2266870.2352941176
787008.0,-987.2784810126582,793636.0,30675.58823529412,793636.0,2275153.9411764704,793636.0,2546178.9411764704,793612.0,20950.29702970297,793612.0,2272863.2772277226,793612.0,2266972.099009901
787086.0,-947.7848101265823,793736.0,30678.029702970296,793736.0,2275151.4554455443,793736.0,2546180.574257426,793712.0,20996.941176470587,793712.0,2272908.5784313725,793712.0,2267062.0
787164.0,-738.8375,793836.0,30677.48514851485,793836.0,2275160.6039603963,793836.0,2546178.9603960398,793812.0,21039.28431372549,793812.0,2272956.5,793812.0,2267145.8725490198
787242.0,-463.88607594936707,793936.0,30679.465346534653,793936.0,2275171.99009901,793936.0,2546181.4356435644,793912.0,21071.0,793912.0,2272987.529411765,793912.0,2267214.6470588236
787320.0,-411.8354430379747,794036.0,30694.158415841583,794036.0,2275168.6336633665,794036.0,2546190.425742574,794012.0,21107.70588235294,794012.0,2273013.5,794012.0,2267269.068627451
787398.0,-630.0379746835442,794136.0,30700.772277227723,794136.0,2275164.4752475247,794136.0,2546202.9801980196,794112.0,21140.441176470587,794112.0,2273041.794117647,794112.0,2267314.3333333335
787476.0,-852.1139240506329,794236.0,30697.764705882353,794236.0,2275170.9901960786,794236.0,2546214.0,794212.0,21174.79411764706,794212.0,2273043.0588235296,794212.0,2267371.8235294116
787554.0,-836.7088607594936,794336.0,30709.019801980197,794336.0,2275173.99009901,794336.0,2546214.891089109,794312.0,21212.176470588234,794312.0,2273057.431372549,794312.0,2267403.7156862747
787632.0,-558.05,794436.0,30718.128712871287,794436.0,2275166.8217821782,794436.0,2546223.8415841586,794412.0,21228.47524752475,794412.0,2273075.386138614,794412.0,2267423.089108911
787710.0,-176.7848101265823,794536.0,30714.019801980197,794536.0,2275170.8118811883,794536.0,2546234.425742574,794512.0,21266.333333333332,794512.0,2273083.3333333335,794512.0,2267443.0
787788.0,104.8607594936709,794636.0,30718.31683168317,794636.0,2275177.504950495,794636.0,2546238.326732673,794612.0,21292.49019607843,794612.0,2273088.9803921566,794612.0,2267435.6666666665
787866.0,287.44303797468353,794736.0,30736.08910891089,794736.0,2275178.0594059406,794736.0,2546239.7524752477,794712.0,21304.647058823528,794712.0,2273080.3529411764,794712.0,2267417.529411765
787944.0,513.3164556962025,794836.0,30744.607843137255,794836.0,2275185.9607843137,794836.0,2546237.3529411764,794812.0,21346.176470588234,794812.0,2273083.529411765,794812.0,2267388.274509804
788022.0,791.2911392405064,794936.0,30749.643564356436,794936.0,2275185.613861386,794936.0,2546238.3663366335,794912.0,21342.470588235294,794912.0,2273069.098039216,794912.0,2267346.6470588236
788100.0,1028.5,795036.0,30757.534653465347,795036.0,2275180.0,795036.0,2546240.9603960398,795012.0,21338.235294117647,795012.0,2273047.411764706,795012.0,2267327.9411764704
788178.0,1133.8101265822784,795136.0,30763.19801980198,795136.0,2275183.920792079,795136.0,2546259.415841584,795112.0,21340.960396039605,795112.0,2273056.574257426,795112.0,2267323.00990099
788256.0,1058.1645569620252,795236.0,30780.772277227723,795236.0,2275193.079207921,795236.0,2546275.1584158414,795212.0,21337.29411764706,795212.0,2273073.617647059,795212.0,2267345.9411764704
788334.0,822.2278481012659,795336.0,30788.69306930693,795336.0,2275200.3663366335,795336.0,2546284.00990099,795312.0,21299.91176470588,795312.0,2273076.5588235296,795312.0,2267373.382352941
788412.0,457.6455696202531,795436.0,30801.441176470587,795436.0,2275209.911764706,795436.0,2546299.911764706,795412.0,21320.666666666668,795412.0,2273083.1666666665,795412.0,2267419.6666666665
788490.0,42.24050632911394,795536.0,30819.455445544554,795536.0,2275213.5445544557,795536.0,2546328.693069307,795512.0,21339.147058823528,795512.0,2273103.5588235296,795512.0,2267470.794117647
788568.0,-275.4,795636.0,30830.049504950493,795636.0,2275210.9702970297,795636.0,2546330.079207921,795612.0,21340.764705882353,795612.0,2273104.18627451,795612.0,2267490.9509803923
788646.0,-361.40506329113924,795736.0,30842.0,795736.0,2275219.1485148515,795736.0,2546345.336633663,795712.0,21349.41,795712.0,2273128.31,795712.0,2267521.41
788724.0,-247.13924050632912,795836.0,30844.8,795836.0,2275223.96,795836.0,2546372.96,795812.0,21379.990291262136,795812.0,2273150.0970873786,795812.0,2267555.834951456
788802.0,-183.64556962025316,795936.0,30861.058823529413,795936.0,2275229.8235294116,795936.0,2546377.725490196,795912.0,21404.04,795912.0,2273176.4,795912.0,2267618.28
788880.0,-295.17721518987344,796036.0,30884.49019607843,796036.0,2275232.7647058824,796036.0,2546379.0392156863,796012.0,21395.69230769231,796012.0,2273185.0,796012.0,2267684.5384615385
788958.0,-529.8354430379746,796136.0,30889.41584158416,796136.0,2275236.900990099,796136.0,2546386.900990099,796112.0,21428.48,796112.0,2273233.6,796112.0,2267752.6
789036.0,-902.375,796236.0,30915.237623762376,796236.0,2275243.4554455443,796236.0,2546398.00990099,796212.0,21441.52,796212.0,2273249.44,796212.0,2267793.08
789114.0,-1174.7088607594937,796336.0,30932.564356435643,796336.0,2275245.4356435644,796336.0,2546414.3465346536,796312.0,21508.0,796312.0,2273308.0,796312.0,2267896.0
789192.0,-916.9367088607595,796436.0,30934.99,796436.0,2275246.37,796436.0,2546416.2,796412.0,21512.0,796412.0,2273339.0,796412.0,2267963.0
789270.0,-258.83544303797464,796536.0,30955.558823529413,796536.0,2275244.411764706,796536.0,2546436.3235294116,796512.0,21543.73076923077,796512.0,2273357.269230769,796512.0,2268021.653846154
789348.0,-84.0506329113924,796636.0,30980.8,796636.0,2275249.04,796636.0,2546457.56,796612.0,21574.76,796612.0,2273385.84,796612.0,2268079.68
789426.0,-1023.1898734177215,796736.0,30999.607843137255,796736.0,2275265.5392156863,796736.0,2546477.3725490198,796712.0,21593.70873786408,796712.0,2273414.9611650486,796712.0,2268141.650485437
789504.0,-1579.4430379746836,796836.0,31011.837438423645,796836.0,2275280.2463054187,796836.0,2546482.0147783253,796812.0,21615.970588235294,796812.0,2273451.6470588236,796812.0,2268234.4411764704
789582.0,1969.1625,796936.0,31016.76354679803,796936.0,2275275.8128078817,796936.0,2546499.748768473,796912.0,21651.901960784315,796912.0,2273488.0098039214,796912.0,2268309.911764706
789660.0,10567.746835443038,797036.0,31024.5,797036.0,2275273.82,797036.0,2546518.22,797012.0,21664.725490196077,797012.0,2273512.068627451,797012.0,2268366.862745098
789738.0,18686.278481012658,797136.0,31048.607843137255,797136.0,2275287.470588235,797136.0,2546538.5490196077,797112.0,21693.564356435643,797112.0,2273556.3465346536,797112.0,2268445.495049505
789816.0,18674.92405063291,797236.0,31065.84,797236.0,2275301.2,797236.0,2546545.84,797212.0,21719.07843137255,797212.0,2273590.8235294116,797212.0,2268514.3333333335
789894.0,10201.632911392406,797336.0,31073.647058823528,797336.0,2275292.2352941176,797336.0,2546575.529411765,797312.0,21739.470588235294,797312.0,2273614.9411764704,797312.0,2268599.9411764704
789972.0,778.0253164556962,797436.0,31086.0,797436.0,2275322.4,797436.0,2546586.9,797412.0,21757.76,797412.0,2273652.62,797412.0,2268692.26
790050.0,-3045.4177215189875,797536.0,31086.392156862745,797536.0,2275309.274509804,797536.0,2546584.529411765,797512.0,21790.96153846154,797512.0,2273694.6923076925,797512.0,2268744.480769231
790128.0,-2030.1375,797636.0,31088.16,797636.0,2275319.48,797636.0,2546569.0,797612.0,21823.96,797612.0,2273735.98,797612.0,2268830.44
790206.0,-982.8607594936709,797736.0,31064.66990291262,797736.0,2275302.0776699027,797736.0,2546542.194174757,797712.0,21855.75,797712.0,2273766.0,797712.0,2268898.5
790284.0,-1776.1518987341772,797836.0,31033.35,797836.0,2275301.4,797836.0,2546495.5,797812.0,21885.46,797812.0,2273808.52,797812.0,2268959.88
790362.0,-2408.8607594936707,797936.0,30963.70588235294,797936.0,2275270.117647059,797936.0,2546463.862745098,797912.0,21910.242718446603,797912.0,2273821.718446602,797912.0,2269011.9223300973
790440.0,-1999.8227848101267,798036.0,30955.564356435643,798036.0,2275252.6435643565,798036.0,2546401.5445544557,798012.0,21934.401960784315,798012.0,2273823.3921568627,798012.0,2269044.098039216
790518.0,-1578.759493670886,798136.0,30876.455445544554,798136.0,2275240.5247524753,798136.0,2546352.792079208,798112.0,21948.08823529412,798112.0,2273794.2352941176,798112.0,2268978.2647058824
790596.0,-1444.125,798236.0,30898.401960784315,798236.0,2275216.794117647,798236.0,2546292.4901960786,798212.0,21966.107843137255,798212.0,2273735.3333333335,798212.0,2268819.5098039214
790674.0,-1371.0,798336.0,30838.598039215685,798336.0,2275196.205882353,798336.0,2546241.5098039214,798312.0,21967.62745098039,798312.0,2273622.7843137253,798312.0,2268563.18627451
790752.0,-1325.5822784810127,798436.0,30801.73267326733,798436.0,2275196.9801980196,798436.0,2546209.6336633665,798412.0,21938.058823529413,798412.0,2273477.5,798412.0,2268237.8235294116
790830.0,-1367.886075949367,798536.0,30750.544554455446,798536.0,2275183.415841584,798536.0,2546186.6831683167,798512.0,21851.940594059404,798512.0,2273315.118811881,798512.0,2267872.079207921
790908.0,-1432.493670886076,798636.0,30721.148514851484,798636.0,2275155.1485148515,798636.0,2546147.584158416,798612.0,21727.176470588234,798612.0,2273158.1764705884,798612.0,2267504.117647059
790986.0,-1241.3291139240507,798736.0,30677.227722772277,798736.0,2275164.4554455443,798736.0,2546136.495049505,798712.0,21567.37254901961,798712.0,2273003.882352941,798712.0,2267166.4901960786
791064.0,-829.1518987341772,798836.0,30640.19801980198,798836.0,2275154.6534653464,798836.0,2546122.831683168,798812.0,21369.41176470588,798812.0,2272851.6470588236,798812.0,2266821.862745098
791142.0,-535.55,798936.0,30596.118811881188,798936.0,2275127.00990099,798936.0,2546091.287128713,798912.0,21181.470588235294,798912.0,2272694.529411765,798912.0,2266495.6470588236
791220.0,-410.24050632911394,799036.0,30575.676470588234,799036.0,2275133.205882353,799036.0,2546066.205882353,799012.0,21021.470588235294,799012.0,2272546.68627451,799012.0,2266213.294117647
791298.0,-227.9873417721519,799136.0,30551.47524752475,799136.0,2275120.4851485146,799136.0,2546051.386138614,799112.0,20865.29702970297,799112.0,2272428.0297029703,799112.0,2265959.1881188117
791376.0,47.29113924050634,799236.0,30534.742574257427,799236.0,2275102.0693069305,799236.0,2546039.306930693,799212.0,20729.235294117647,799212.0,2272330.2843137253,799212.0,2265736.637254902
791454.0,172.65822784810126,799336.0,30525.069306930694,799336.0,2275107.9306930695,799336.0,2546000.99009901,799312.0,20626.225490196077,799312.0,2272243.3725490198,799312.0,2265559.725490196
791532.0,92.86075949367088,799436.0,30511.80198019802,799436.0,2275105.5148514854,799436.0,2546007.326732673,799412.0,20548.529411764706,799412.0,2272168.3235294116,799412.0,2265433.3529411764
791610.0,7.493670886075947,799536.0,30488.465346534653,799536.0,2275108.4455445544,799536.0,2546005.5544554456,799512.0,20487.598039215685,799512.0,2272113.8725490198,799512.0,2265338.8529411764
791688.0,131.3125,799636.0,30473.079207920793,799636.0,2275109.0,799636.0,2546009.2574257427,799612.0,20441.156862745098,799612.0,2272080.156862745,799612.0,2265272.3039215687
791766.0,454.873417721519,799736.0,30479.333333333332,799736.0,2275098.1666666665,799736.0,2546010.0,799712.0,20420.663366336634,799712.0,2272061.9801980196,799712.0,2265240.297029703
791844.0,693.8101265822785,799836.0,30480.178217821784,799836.0,2275094.3564356435,799836.0,2546049.4455445544,799812.0,20406.392156862745,799812.0,2272060.3333333335,799812.0,2265236.745098039
791922.0,743.632911392405,799936.0,30478.37623762376,799936.0,2275087.504950495,799936.0,2546060.4356435644,799912.0,20403.41176470588,799912.0,2272075.9411764704,799912.0,2265244.3529411764
792000.0,776.1392405063291,800036.0,30478.0,800036.0,2275081.99009901,800036.0,2546065.8118811883,800012.0,20407.333333333332,800012.0,2272089.3333333335,800012.0,2265274.0
792078.0,961.506329113924,800136.0,30498.59405940594,800136.0,2275080.207920792,800136.0,2546063.0396039602,800112.0,20420.039215686276,800112.0,2272109.9215686275,800112.0,2265332.588235294
792156.0,1338.1645569620252,800236.0,30511.821782178216,800236.0,2275087.0396039602,800236.0,2546079.207920792,800212.0,20447.58823529412,800212.0,2272146.0,800212.0,2265402.588235294
792234.0,1661.5189873417721,800336.0,30508.647058823528,800336.0,2275089.7647058824,800336.0,2546086.294117647,800312.0,20470.882352941175,800312.0,2272180.705882353,800312.0,2265472.31372549
792312.0,1646.1,800436.0,30523.554455445545,800436.0,2275095.2673267326,800436.0,2546079.4752475247,800412.0,20500.861386138615,800412.0,2272223.1584158414,800412.0,2265552.0
792390.0,1379.4303797468353,800536.0,30530.48514851485,800536.0,2275089.574257426,800536.0,2546077.0,800512.0,20524.254901960783,800512.0,2272272.088235294,800512.0,2265657.637254902
792468.0,1147.5316455696202,800636.0,30544.188118811882,800636.0,2275076.7425742573,800636.0,2546085.792079208,800612.0,20572.37254901961,800612.0,2272313.68627451,800612.0,2265781.088235294
792546.0,998.7721518987341,800736.0,30550.445544554455,800736.0,2275075.168316832,800736.0,2546094.782178218,800712.0,20615.20588235294,800712.0,2272380.2647058824,800712.0,2265907.970588235
792624.0,728.0506329113924,800836.0,30571.673267326732,800836.0,2275080.2772277226,800836.0,2546099.8514851485,800812.0,20649.333333333332,800812.0,2272430.901960784,800812.0,2266037.5196078434
792702.0,233.11392405063293,800936.0,30578.607843137255,800936.0,2275088.9607843137,800936.0,2546102.3921568627,800912.0,20685.333333333332,800912.0,2272503.6666666665,800912.0,2266174.6666666665
792780.0,-383.92405063291136,801036.0,30575.26732673267,801036.0,2275099.5148514854,801036.0,2546102.3168316833,801012.0,20734.5,801012.0,2272554.0588235296,801012.0,2266324.617647059
792858.0,-945.3417721518988,801136.0,30578.712871287127,801136.0,2275105.0198019804,801136.0,2546111.425742574,801112.0,20783.99019607843,801112.0,2272632.2843137253,801112.0,2266467.7156862747
792936.0,-1251.8125,801236.0,30572.37623762376,801236.0,2275107.326732673,801236.0,2546114.673267327,801212.0,20828.811881188118,801212.0,2272695.207920792,801212.0,2266603.1584158414
793014.0,-1238.5569620253164,801336.0,30566.69306930693,801336.0,2275109.306930693,801336.0,2546115.306930693,801312.0,20863.823529411766,801312.0,2272750.901960784,801312.0,2266729.294117647
793092.0,-1035.873417721519,801436.0,30569.21782178218,801436.0,2275129.9504950494,801436.0,2546103.128712871,801412.0,20903.07843137255,801412.0,2272799.9215686275,801412.0,2266833.1764705884
793170.0,-869.9367088607595,801536.0,30576.647058823528,801536.0,2275143.5098039214,801536.0,2546099.137254902,801512.0,20953.41176470588,801512.0,2272848.411764706,801512.0,2266946.2352941176
793248.0,-872.9746835443038,801636.0,30572.633663366338,801636.0,2275152.3663366335,801636.0,2546113.2772277226,801612.0,20993.725490196077,801612.0,2272888.2156862747,801612.0,2267033.529411765
793326.0,-926.3417721518987,801736.0,30573.435643564357,801736.0,2275156.3960396037,801736.0,2546116.7722772276,801712.0,21036.43137254902,801712.0,2272918.6274509802,801712.0,2267120.745098039
793404.0,-829.6835443037975,801836.0,30576.40594059406,801836.0,2275154.217821782,801836.0,2546119.9405940594,801812.0,21058.0,801812.0,2272950.0,801812.0,2267158.0
793482.0,-618.8860759493671,801936.0,30578.892156862745,801936.0,2275145.4803921566,801936.0,2546126.8921568627,801912.0,21103.098039215685,801912.0,2272950.9803921566,801912.0,2267188.3921568627
793560.0,-458.6,802036.0,30583.257425742573,802036.0,2275132.099009901,802036.0,2546131.2574257427,802012.0,21116.49019607843,802012.0,2272951.9607843137,802012.0,2267181.31372549
793638.0,-396.253164556962,802136.0,30587.21782178218,802136.0,2275126.0,802136.0,2546130.782178218,802112.0,21139.58823529412,802112.0,2272969.882352941,802112.0,2267163.117647059
793716.0,-453.4556962025316,802236.0,30599.89108910891,802236.0,2275134.168316832,802236.0,2546137.168316832,802212.0,21152.980392156864,802212.0,2272938.745098039,802212.0,2267134.3529411764
793794.0,-686.7721518987341,802336.0,30614.881188118812,802336.0,2275133.5148514854,802336.0,2546144.5346534653,802312.0,21172.039215686276,802312.0,2272943.2156862747,802312.0,2267108.5490196077
793872.0,-951.4177215189874,802436.0,30615.843137254902,802436.0,2275136.8725490198,802436.0,2546144.4803921566,802412.0,21185.470588235294,802412.0,2272921.9411764704,802412.0,2267094.529411765
793950.0,-899.7974683544304,802536.0,30618.059405940596,802536.0,2275144.99009901,802536.0,2546159.1485148515,802512.0,21175.673267326732,802512.0,2272938.168316832,802512.0,2267085.1584158414
794028.0,-478.45569620253167,802636.0,30629.445544554455,802636.0,2275140.0396039602,802636.0,2546172.0198019804,802612.0,21191.91176470588,802612.0,2272938.4411764704,802612.0,2267082.294117647
794106.0,-49.56962025316456,802736.0,30647.128712871287,802736.0,2275138.425742574,802736.0,2546182.128712871,802712.0,21198.333333333332,802712.0,2272942.1666666665,802712.0,2267085.3333333335
794184.0,100.7,802836.0,30668.079207920793,802836.0,2275148.6039603963,802836.0,2546195.9504950494,802812.0,21198.186274509804,802812.0,2272952.7647058824,802812.0,2267110.411764706
794262.0,-5.74683544303798,802936.0,30675.603960396038,802936.0,2275162.118811881,802936.0,2546205.376237624,802912.0,21201.176470588234,802912.0,2272958.1764705884,802912.0,2267136.6470588236
794340.0,-208.48101265822783,803036.0,30679.86274509804,803036.0,2275169.3529411764,803036.0,2546220.411764706,803012.0,21212.06862745098,803012.0,2272977.588235294,803012.0,2267167.5588235296
794418.0,-414.88607594936707,803136.0,30692.227722772277,803136.0,2275174.0495049506,803136.0,2546228.7425742573,803112.0,21222.549019607843,803112.0,2272993.568627451,803112.0,2267215.0098039214
794496.0,-592.3037974683544,803236.0,30701.128712871287,803236.0,2275178.425742574,803236.0,2546237.8118811883,803212.0,21233.823529411766,803212.0,2273001.411764706,803212.0,2267247.8529411764
794574.0,-601.126582278481,803336.0,30716.059405940596,803336.0,2275173.594059406,803336.0,2546251.1584158414,803312.0,21247.841584158417,803312.0,2273032.6336633665,803312.0,2267294.7524752477
794652.0,-471.40506329113924,803436.0,30734.62376237624,803436.0,2275178.99009901,803436.0,2546261.4653465347,803412.0,21268.235294117647,803412.0,2273072.9411764704,803412.0,2267358.0
794730.0,-481.4,803536.0,30741.752475247526,803536.0,2275192.4554455443,803536.0,2546283.0495049506,803512.0,21294.21568627451,803512.0,2273093.2352941176,803512.0,2267415.745098039
794808.0,-640.3164556962025,803636.0,30752.441176470587,803636.0,2275187.8235294116,803636.0,2546307.911764706,803612.0,21315.666666666668,803612.0,2273129.0,803612.0,2267474.3333333335
794886.0,-619.5822784810126,803736.0,30762.396039603962,803736.0,2275191.0693069305,803736.0,2546311.0,803712.0,21342.058823529413,803712.0,2273153.411764706,803712.0,2267538.3529411764
794964.0,-257.2658227848101,803836.0,30778.554455445545,803836.0,2275192.7722772276,803836.0,2546318.8415841586,803812.0,21356.13725490196,803812.0,2273191.882352941,803812.0,2267612.8235294116
795042.0,169.67088607594937,803936.0,30794.346534653465,803936.0,2275206.0396039602,803936.0,2546332.306930693,803912.0,21370.156862745098,803912.0,2273228.411764706,803912.0,2267677.0392156863
795120.0,282.6835443037975,804036.0,30802.742574257427,804036.0,2275208.336633663,804036.0,2546338.0693069305,804012.0,21397.41176470588,804012.0,2273254.882352941,804012.0,2267759.588235294
795198.0,86.27848101265823,804136.0,30820.61386138614,804136.0,2275211.613861386,804136.0,2546356.900990099,804112.0,21427.653465346535,804112.0,2273286.673267327,804112.0,2267828.415841584
795276.0,-150.51898734177215,804236.0,30832.901960784315,804236.0,2275226.098039216,804236.0,2546373.274509804,804212.0,21452.852941176472,804212.0,2273318.205882353,804212.0,2267894.382352941
795354.0,-279.95,804336.0,30857.20792079208,804336.0,2275243.326732673,804336.0,2546395.0198019804,804312.0,21476.480392156864,804312.0,2273347.7156862747,804312.0,2267975.2156862747
795432.0,-285.72151898734177,804436.0,30886.465346534653,804436.0,2275237.8613861385,804436.0,2546419.4554455443,804412.0,21511.382352941175,804412.0,2273380.705882353,804412.0,2268059.7647058824
795510.0,-69.1139240506329,804536.0,30906.940594059404,804536.0,2275243.0495049506,804536.0,2546436.326732673,804512.0,21552.0,804512.0,2273419.0,804512.0,2268131.5
795588.0,494.3291139240506,804636.0,30918.68316831683,804636.0,2275251.0,804636.0,2546454.3564356435,804612.0,21575.323529411766,804612.0,2273453.4509803923,804612.0,2268203.2352941176
795666.0,1198.392405063291,804736.0,30941.89108910891,804736.0,2275256.663366337,804736.0,2546483.3465346536,804712.0,21594.745098039217,804712.0,2273489.656862745,804712.0,2268279.029411765
795744.0,1667.3037974683543,804836.0,30960.950495049507,804836.0,2275271.5148514854,804836.0,2546495.9702970297,804812.0,21620.019801980197,804812.0,2273524.801980198,804812.0,2268354.881188119
795822.0,1806.9367088607594,804936.0,30976.235294117647,804936.0,2275271.0,804936.0,2546507.117647059,804912.0,21648.117647058825,804912.0,2273556.843137255,804912.0,2268433.745098039
795900.0,1640.15,805036.0,30975.69306930693,805036.0,2275282.2574257427,805036.0,2546515.306930693,805012.0,21689.70588235294,805012.0,2273601.9411764704,805012.0,2268495.7647058824
795978.0,1289.4556962025317,805136.0,30972.871287128713,805136.0,2275273.297029703,805136.0,2546513.3465346536,805112.0,21723.235294117647,805112.0,2273639.1960784313,805112.0,2268562.6274509802
796056.0,837.9493670886076,805236.0,30973.465346534653,805236.0,2275266.3663366335,805236.0,2546486.8118811883,805212.0,21746.058823529413,805212.0,2273662.4509803923,805212.0,2268634.9411764704
796134.0,288.0,805336.0,30940.227722772277,805336.0,2275275.8613861385,805336.0,2546473.3465346536,805312.0,21772.882352941175,805312.0,2273690.882352941,805312.0,2268706.0
796212.0,-149.3924050632911,805436.0,30902.08910891089,805436.0,2275254.9702970297,805436.0,2546429.584158416,805412.0,21801.666666666668,805412.0,2273730.0,805412.0,2268773.0
796290.0,-337.26582278481015,805536.0,30854.940594059404,805536.0,2275236.792079208,805536.0,2546391.920792079,805512.0,21830.920792079207,805512.0,2273755.0693069305,805512.0,2268839.594059406
796368.0,-477.6455696202531,805636.0,30816.21568627451,805636.0,2275215.843137255,805636.0,2546346.8235294116,805612.0,21850.735294117647,805612.0,2273767.8235294116,805612.0,2268884.911764706
796446.0,-710.8481012658228,805736.0,30763.178217821784,805736.0,2275213.198019802,805736.0,2546311.099009901,805712.0,21872.06862745098,805712.0,2273766.029411765,805712.0,2268872.2156862747
796524.0,-916.8987341772151,805836.0,30722.366336633662,805836.0,2275201.613861386,805836.0,2546258.5247524753,805812.0,21911.323529411766,805812.0,2273733.794117647,805812.0,2268793.970588235
796602.0,-867.1645569620254,805936.0,30685.29702970297,805936.0,2275193.891089109,805936.0,2546229.297029703,805912.0,21914.264705882353,805912.0,2273655.117647059,805912.0,2268617.9901960786
796680.0,-709.9,806036.0,30637.554455445545,806036.0,2275156.108910891,806036.0,2546183.079207921,806012.0,21905.91176470588,806012.0,2273536.3235294116,806012.0,2268355.294117647
796758.0,-582.2405063291139,806136.0,30588.643564356436,806136.0,2275154.7227722774,806136.0,2546149.0198019804,806112.0,21866.882352941175,806112.0,2273423.088235294,806112.0,2268031.382352941
796836.0,-325.1898734177215,806236.0,30547.941176470587,806236.0,2275132.6764705884,806236.0,2546128.970588235,806212.0,21772.544554455446,806212.0,2273270.089108911,806212.0,2267660.1386138615
796914.0,-87.72151898734177,806336.0,30535.128712871287,806336.0,2275119.0693069305,806336.0,2546106.0594059406,806312.0,21635.764705882353,806312.0,2273111.705882353,806312.0,2267288.2352941176
796992.0,-312.82278481012656,806436.0,30508.039603960395,806436.0,2275119.584158416,806436.0,2546079.4653465347,806412.0,21460.196078431374,806412.0,2272948.9607843137,806412.0,2266945.411764706
797070.0,-1453.4303797468353,806536.0,30476.257425742573,806536.0,2275113.4455445544,806536.0,2546069.3168316833,806512.0,21271.86274509804,806512.0,2272786.901960784,806512.0,2266608.901960784
797148.0,-2179.9493670886077,806636.0,30460.73267326733,806636.0,2275120.8514851485,806636.0,2546037.1584158414,806612.0,21073.470588235294,806612.0,2272625.529411765,806612.0,2266304.0
797226.0,1317.493670886076,806736.0,30430.08910891089,806736.0,2275092.881188119,806736.0,2546039.8415841586,806712.0,20899.450980392157,806712.0,2272444.745098039,806712.0,2266020.274509804
797304.0,9971.810126582279,806836.0,30432.352941176472,806836.0,2275088.901960784,806836.0,2546001.862745098,806812.0,20773.019607843136,806812.0,2272322.6666666665,806812.0,2265740.7843137253
797382.0,17909.354430379746,806936.0,30400.0,806936.0,2275084.0,806936.0,2545995.0,806912.0,20636.41176470588,806912.0,2272208.411764706,806912.0,2265550.0
797460.0,17970.4875,807036.0,30396.039603960395,807036.0,2275072.118811881,807036.0,2545988.0693069305,807012.0,20512.980198019803,807012.0,2272132.2673267326,807012.0,2265352.7722772276
797538.0,10173.962025316456,807136.0,30393.059405940596,807136.0,2275074.9405940594,807136.0,2545980.1584158414,807112.0,20461.823529411766,807112.0,2272064.529411765,807112.0,2265222.705882353
797616.0,1394.822784810127,807236.0,30364.861386138615,807236.0,2275072.089108911,807236.0,2545988.7326732674,807212.0,20389.803921568626,807212.0,2272015.882352941,807212.0,2265113.5
797694.0,-2477.227848101266,807336.0,30382.247524752474,807336.0,2275066.2376237623,807336.0,2545978.4356435644,807312.0,20370.196078431374,807312.0,2272004.117647059,807312.0,2265063.5
797772.0,-2096.46835443038,807436.0,30364.940594059404,807436.0,2275063.1485148515,807436.0,2545974.198019802,807412.0,20349.617647058825,807412.0,2271973.911764706,807412.0,2265037.7647058824
797850.0,-1487.493670886076,807536.0,30369.58823529412,807536.0,2275069.5196078434,807536.0,2545980.5196078434,807512.0,20333.78431372549,807512.0,2271974.901960784,807512.0,2265037.0
797928.0,-2125.240506329114,807636.0,30382.89108910891,807636.0,2275071.8415841586,807636.0,2545985.6039603963,807612.0,20337.656862745098,807612.0,2271995.4901960786,807612.0,2265056.5588235296
798006.0,-2604.5696202531644,807736.0,30379.445544554455,807736.0,2275082.9306930695,807736.0,2545983.2673267326,807712.0,20348.941176470587,807712.0,2272007.9411764704,807712.0,2265134.588235294
798084.0,-2392.25,807836.0,30401.52475247525,807836.0,2275079.495049505,807836.0,2546000.118811881,807812.0,20354.50495049505,807812.0,2272039.6336633665,807812.0,2265210.4752475247
798162.0,-2172.278481012658,807936.0,30401.326732673268,807936.0,2275068.306930693,807936.0,2546004.673267327,807912.0,20381.470588235294,807912.0,2272068.588235294,807912.0,2265270.9411764704
798240.0,-2187.5822784810125,808036.0,30415.980198019803,808036.0,2275062.594059406,808036.0,2546014.693069307,808012.0,20403.980392156864,808012.0,2272105.6470588236,808012.0,2265332.3529411764
798318.0,-2251.987341772152,808136.0,30438.70588235294,808136.0,2275081.843137255,808136.0,2546033.254901961,808112.0,20439.882352941175,808112.0,2272158.2156862747,808112.0,2265448.0784313725
798396.0,-2182.1645569620255,808236.0,30436.039603960395,808236.0,2275085.8514851485,808236.0,2546041.108910891,808212.0,20481.41176470588,808212.0,2272215.588235294,808212.0,2265547.882352941
798474.0,-1936.4177215189873,808336.0,30454.356435643564,808336.0,2275093.574257426,808336.0,2546043.6831683167,808312.0,20506.686274509804,808312.0,2272273.431372549,808312.0,2265631.725490196
798552.0,-1699.759493670886,808436.0,30462.158415841583,808436.0,2275079.198019802,808436.0,2546048.99009901,808412.0,20550.21568627451,808412.0,2272343.0392156863,808412.0,2265755.4509803923
798630.0,-1584.7974683544303,808536.0,30463.821782178216,808536.0,2275084.217821782,808536.0,2546055.7524752477,808512.0,20596.52475247525,808512.0,2272406.881188119,808512.0,2265886.168316832
798708.0,-1474.8375,808636.0,30464.811881188118,808636.0,2275093.306930693,808636.0,2546057.8118811883,808612.0,20633.42156862745,808612.0,2272465.5392156863,808612.0,2266046.598039216
798786.0,-1277.3291139240507,808736.0,30466.603960396038,808736.0,2275107.831683168,808736.0,2546057.198019802,808712.0,20686.117647058825,808712.0,2272526.3235294116,808712.0,2266178.705882353
798864.0,-1060.26582278481,808836.0,30475.712871287127,808836.0,2275097.5346534653,808836.0,2546068.089108911,808812.0,20715.598039215685,808812.0,2272588.8039215687,808812.0,2266315.4901960786
798942.0,-961.5316455696203,808936.0,30478.0,808936.0,2275096.3235294116,808936.0,2546060.931372549,808912.0,20768.333333333332,808912.0,2272660.598039216,808912.0,2266458.6274509802
799020.0,-970.5443037974684,809036.0,30481.049504950493,809036.0,2275097.0,809036.0,2546068.673267327,809012.0,20820.425742574258,809012.0,2272723.623762376,809012.0,2266591.8118811883
799098.0,-906.1898734177215,809136.0,30475.227722772277,809136.0,2275097.7524752477,809136.0,2546071.2475247523,809112.0,20860.333333333332,809112.0,2272774.6666666665,809112.0,2266699.0
799176.0,-684.1139240506329,809236.0,30482.653465346535,809236.0,2275096.5148514854,809236.0,2546068.7722772276,809212.0,20906.647058823528,809212.0,2272817.529411765,809212.0,2266787.0
799254.0,-395.40506329113924,809336.0,30492.59405940594,809336.0,2275103.326732673,809336.0,2546067.2673267326,809312.0,20960.764705882353,809312.0,2272863.3725490198,809312.0,2266862.1764705884
799332.0,-104.1645569620253,809436.0,30494.27722772277,809436.0,2275106.0,809436.0,2546065.5544554456,809412.0,21011.78431372549,809412.0,2272888.0784313725,809412.0,2266919.3921568627
799410.0,192.75,809536.0,30494.0,809536.0,2275097.529411765,809536.0,2546069.9411764704,809512.0,21049.823529411766,809512.0,2272907.882352941,809512.0,2266946.0588235296
799488.0,435.7088607594937,809636.0,30505.08910891089,809636.0,2275102.3168316833,809636.0,2546078.9306930695,809612.0,21063.0,809612.0,2272908.1960784313,809612.0,2266962.9411764704
799566.0,577.7341772151899,809736.0,30518.19801980198,809736.0,2275104.6336633665,809736.0,2546090.198019802,809712.0,21092.647058823528,809712.0,2272914.274509804,809712.0,2266961.568627451
799644.0,691.2911392405064,809836.0,30524.019801980197,809836.0,2275113.425742574,809836.0,2546081.207920792,809812.0,21112.235294117647,809812.0,2272924.9411764704,809812.0,2266959.3529411764
799722.0,795.0126582278481,809936.0,30535.61386138614,809936.0,2275106.7227722774,809936.0,2546094.900990099,809912.0,21110.574257425742,809912.0,2272918.336633663,809912.0,2266970.1485148515
799800.0,826.6835443037975,810036.0,30541.0,810036.0,2275113.294117647,810036.0,2546116.6470588236,810012.0,21112.5,810012.0,2272903.5,810012.0,2266966.0
799878.0,858.6075949367089,810136.0,30549.871287128713,810136.0,2275125.0693069305,810136.0,2546117.9306930695,810112.0,21114.882352941175,810112.0,2272886.794117647,810112.0,2266964.205882353
799956.0,937.1392405063291,810236.0,30562.48514851485,810236.0,2275127.376237624,810236.0,2546126.2277227724,810212.0,21112.93137254902,810212.0,2272887.754901961,810212.0,2266976.6078431373
800034.0,930.3,810336.0,30571.34,810336.0,2275127.62,810336.0,2546159.04,810312.0,21110.970588235294,810312.0,2272901.088235294,810312.0,2266972.294117647
800112.0,727.4556962025316,810436.0,30581.825242718445,810436.0,2275131.6116504855,810436.0,2546173.194174757,810412.0,21112.56,810412.0,2272905.0,810412.0,2266973.33
800190.0,308.0632911392405,810536.0,30598.8,810536.0,2275138.72,810536.0,2546180.85,810512.0,21124.125,810512.0,2272915.75,810512.0,2267005.8846153845
800268.0,-245.63291139240508,810636.0,30610.470588235294,810636.0,2275144.31372549,810636.0,2546196.254901961,810612.0,21146.61,810612.0,2272936.46,810612.0,2267032.85
800346.0,-818.4303797468355,810736.0,30622.029702970296,810736.0,2275144.306930693,810736.0,2546200.1782178218,810712.0,21151.625,810712.0,2272951.0,810712.0,2267057.375
800424.0,-1280.9620253164558,810836.0,30638.980198019803,810836.0,2275144.663366337,810836.0,2546210.198019802,810812.0,21166.25,810812.0,2272965.55,810812.0,2267090.35
800502.0,-1464.746835443038,810936.0,30644.303921568626,810936.0,2275151.931372549,810936.0,2546224.31372549,810912.0,21177.75,810912.0,2272989.4,810912.0,2267131.3
800580.0,-1437.6,811036.0,30648.29702970297,811036.0,2275161.7227722774,811036.0,2546224.8514851485,811012.0,21217.65,811012.0,2273039.95,811012.0,2267228.01
800658.0,-1524.253164556962,811136.0,30664.92,811136.0,2275164.44,811136.0,2546230.84,811112.0,21236.427184466018,811112.0,2273076.718446602,811112.0,2267290.2427184465
800736.0,-1863.4050632911392,811236.0,30688.764705882353,811236.0,2275166.0588235296,811236.0,2546246.6470588236,811212.0,21262.16,811212.0,2273098.96,811212.0,2267342.56
800814.0,-2156.7974683544303,811336.0,30703.5,811336.0,2275171.5,811336.0,2546257.5,811312.0,21283.653846153848,811312.0,2273130.346153846,811312.0,2267417.653846154
800892.0,-2063.7974683544303,811436.0,30717.6213592233,811436.0,2275175.4563106797,811436.0,2546272.650485437,811412.0,21302.764705882353,811412.0,2273159.117647059,811412.0,2267492.882352941
800970.0,-1733.8987341772151,811536.0,30732.163366336634,811536.0,2275178.163366337,811536.0,2546285.698019802,811512.0,21322.764705882353,811512.0,2273193.2352941176,811512.0,2267578.4509803923
801048.0,-1447.987341772152,811636.0,30734.638613861385,811636.0,2275180.6386138615,811636.0,2546287.1831683167,811612.0,21354.92156862745,811612.0,2273246.7647058824,811612.0,2267644.725490196
801126.0,-1255.8354430379748,811736.0,30748.6,811736.0,2275185.15,811736.0,2546296.1,811712.0,21379.647058823528,811712.0,2273260.529411765,811712.0,2267712.294117647
801204.0,-1133.4,811836.0,30759.58823529412,811836.0,2275187.6764705884,811836.0,2546315.705882353,811812.0,21423.29411764706,811812.0,2273297.901960784,811812.0,2267778.8039215687
801282.0,-1077.5316455696202,811936.0,30761.74,811936.0,2275189.01,811936.0,2546338.32,811912.0,21443.21782178218,811912.0,2273338.0495049506,811912.0,2267863.2574257427
801360.0,-1120.5189873417721,812036.0,30786.194174757282,812036.0,2275193.4174757283,812036.0,2546351.165048544,812012.0,21459.6,812012.0,2273360.77,812012.0,2267936.88
801438.0,-1227.493670886076,812136.0,30814.4,812136.0,2275194.4,812136.0,2546364.4,812112.0,21482.0,812112.0,2273392.875,812112.0,2268010.0
801516.0,-1317.4177215189873,812236.0,30836.41176470588,812236.0,2275201.6666666665,812236.0,2546388.745098039,812212.0,21519.25,812212.0,2273442.71,812212.0,2268068.81
801594.0,-1371.3625,812336.0,30854.42,812336.0,2275214.66,812336.0,2546397.94,812312.0,21545.98076923077,812312.0,2273462.423076923,812312.0,2268174.576923077
801672.0,-1321.6375,812436.0,30871.92156862745,812436.0,2275217.137254902,812436.0,2546417.9215686275,812412.0,21588.6,812412.0,2273492.0,812412.0,2268247.4
801750.0,-1135.8101265822784,812536.0,30892.36,812536.0,2275216.16,812536.0,2546443.04,812512.0,21601.26213592233,812512.0,2273568.145631068,812512.0,2268315.4466019417
801828.0,-959.7594936708861,812636.0,30903.485436893203,812636.0,2275225.2427184465,812636.0,2546447.1067961166,812612.0,21626.666666666668,812612.0,2273572.0588235296,812612.0,2268384.9411764704
801906.0,-929.2658227848101,812736.0,30912.21782178218,812736.0,2275234.3465346536,812736.0,2546436.3663366335,812712.0,21660.0,812712.0,2273625.0,812712.0,2268482.0
801984.0,-1094.73417721519,812836.0,30902.039603960395,812836.0,2275233.3168316833,812836.0,2546423.1782178218,812812.0,21692.352941176472,812812.0,2273649.5098039214,812812.0,2268574.156862745
802062.0,-1339.7848101265822,812936.0,30924.62376237624,812936.0,2275229.702970297,812936.0,2546388.801980198,812912.0,21728.549019607843,812912.0,2273695.156862745,812912.0,2268637.4901960786
802140.0,-1426.4430379746836,813036.0,30906.603960396038,813036.0,2275212.2772277226,813036.0,2546344.1485148515,813012.0,21762.0,813012.0,2273718.6470588236,813012.0,2268709.6470588236
802218.0,-1270.5875,813136.0,30870.51485148515,813136.0,2275191.415841584,813136.0,2546303.5445544557,813112.0,21774.13725490196,813112.0,2273759.6274509802,813112.0,2268785.882352941
802296.0,-1000.2025316455696,813236.0,30826.19801980198,813236.0,2275177.5148514854,813236.0,2546277.801980198,813212.0,21802.960784313724,813212.0,2273768.411764706,813212.0,2268821.7647058824
802374.0,-805.620253164557,813336.0,30772.029411764706,813336.0,2275155.088235294,813336.0,2546237.2647058824,813312.0,21835.117647058825,813312.0,2273770.7647058824,813312.0,2268816.1764705884
802452.0,-761.3417721518987,813436.0,30720.158415841583,813436.0,2275145.7623762377,813436.0,2546198.6435643565,813412.0,21852.940594059404,813412.0,2273726.5643564356,813412.0,2268699.118811881
802530.0,-804.7848101265823,813536.0,30663.68316831683,813536.0,2275141.5247524753,813536.0,2546155.9504950494,813512.0,21858.41176470588,813512.0,2273632.1470588236,813512.0,2268501.1764705884
802608.0,-866.6582278481012,813636.0,30623.79207920792,813636.0,2275133.623762376,813636.0,2546146.2475247523,813612.0,21847.333333333332,813612.0,2273494.5,813612.0,2268209.1666666665
802686.0,-934.8,813736.0,30572.465346534653,813736.0,2275110.910891089,813736.0,2546099.9504950494,813712.0,21805.941176470587,813712.0,2273352.8235294116,813712.0,2267858.362745098
802764.0,-981.9620253164557,813836.0,30542.554455445545,813836.0,2275103.2574257427,813836.0,2546079.4356435644,813812.0,21685.823529411766,813812.0,2273187.8235294116,813812.0,2267477.911764706
802842.0,-947.7594936708861,813936.0,30515.425742574258,813936.0,2275091.7722772276,813936.0,2546039.4356435644,813912.0,21534.62745098039,813912.0,2273034.274509804,813912.0,2267137.5392156863
802920.0,-814.2405063291139,814036.0,30499.970588235294,814036.0,2275096.4803921566,814036.0,2546025.18627451,814012.0,21353.38613861386,814012.0,2272869.6336633665,814012.0,2266779.920792079
802998.0,-620.6582278481012,814136.0,30472.78217821782,814136.0,2275069.1782178218,814136.0,2546023.4752475247,814112.0,21153.764705882353,814112.0,2272723.1960784313,814112.0,2266458.7843137253
803076.0,-377.11392405063293,814236.0,30443.673267326732,814236.0,2275073.7326732674,814236.0,2546008.9405940594,814212.0,20968.235294117647,814212.0,2272589.7843137253,814212.0,2266164.254901961
803154.0,-91.4,814336.0,30424.811881188118,814336.0,2275066.405940594,814336.0,2545995.7722772276,814312.0,20802.941176470587,814312.0,2272459.117647059,814312.0,2265882.529411765
803232.0,240.36708860759492,814436.0,30415.920792079207,814436.0,2275060.504950495,814436.0,2545987.8514851485,814412.0,20669.901960784315,814412.0,2272330.098039216,814412.0,2265652.137254902
803310.0,662.1139240506329,814536.0,30402.742574257427,814536.0,2275045.386138614,814536.0,2546018.900990099,814512.0,20552.227722772277,814512.0,2272235.8118811883,814512.0,2265465.1584158414
803388.0,1027.379746835443,814636.0,30398.861386138615,814636.0,2275048.3564356435,814636.0,2546023.8118811883,814612.0,20466.049019607843,814612.0,2272165.3333333335,814612.0,2265314.382352941
803466.0,1057.3291139240507,814736.0,30383.21568627451,814736.0,2275047.8725490198,814736.0,2546014.7843137253,814712.0,20402.764705882353,814712.0,2272100.5784313725,814712.0,2265204.8235294116
803544.0,722.620253164557,814836.0,30384.19801980198,814836.0,2275022.5346534653,814836.0,2546012.0198019804,814812.0,20358.764705882353,814812.0,2272059.705882353,814812.0,2265139.7352941176
803622.0,211.0,814936.0,30375.68316831683,814936.0,2275028.9504950494,814936.0,2546002.079207921,814912.0,20341.41176470588,814912.0,2272046.0098039214,814912.0,2265107.245098039
803700.0,-223.97468354430382,815036.0,30372.346534653465,815036.0,2275038.9603960398,815036.0,2546001.891089109,815012.0,20325.696078431374,815012.0,2272046.8921568627,815012.0,2265095.68627451
803778.0,-465.0,815136.0,30377.059405940596,815136.0,2275025.297029703,815136.0,2545986.702970297,815112.0,20314.882352941175,815112.0,2272050.117647059,815112.0,2265120.2647058824
803856.0,-635.2278481012659,815236.0,30378.49504950495,815236.0,2275029.8514851485,815236.0,2545982.4455445544,815212.0,20329.79207920792,815212.0,2272073.871287129,815212.0,2265166.0495049506
803934.0,-815.379746835443,815336.0,30388.901960784315,815336.0,2275026.7647058824,815336.0,2545991.31372549,815312.0,20345.117647058825,815312.0,2272106.7647058824,815312.0,2265217.705882353
804012.0,-900.5696202531645,815436.0,30411.079207920793,815436.0,2275020.782178218,815436.0,2545999.0396039602,815412.0,20358.21568627451,815412.0,2272128.68627451,815412.0,2265286.8039215687
804090.0,-845.126582278481,815536.0,30415.08910891089,815536.0,2275010.0693069305,815536.0,2546001.2277227724,815512.0,20385.666666666668,815512.0,2272172.8039215687,815512.0,2265378.470588235
804168.0,-769.4810126582279,815636.0,30424.0,815636.0,2275017.0,815636.0,2546024.0,815612.0,20425.117647058825,815612.0,2272230.6470588236,815612.0,2265488.0
804246.0,-815.506329113924,815736.0,30457.663366336634,815736.0,2275030.8613861385,815736.0,2546066.574257426,815712.0,20463.07843137255,815712.0,2272278.0,815712.0,2265597.4509803923
804324.0,-1024.0,815836.0,30458.0,815836.0,2275048.6435643565,815836.0,2546055.2376237623,815812.0,20494.68316831683,815812.0,2272331.702970297,815812.0,2265716.297029703
804402.0,-1163.7088607594937,815936.0,30460.91089108911,815936.0,2275029.594059406,815936.0,2546035.594059406,815912.0,20541.13725490196,815912.0,2272392.401960784,815912.0,2265853.068627451
804480.0,-886.8227848101266,816036.0,30475.40594059406,816036.0,2275057.8118811883,816036.0,2546070.5346534653,816012.0,20584.63725490196,816012.0,2272450.5,816012.0,2265987.882352941
804558.0,-404.46835443037975,816136.0,30475.049504950493,816136.0,2275090.3663366335,816136.0,2546066.297029703,816112.0,20618.558823529413,816112.0,2272513.882352941,816112.0,2266134.794117647
804636.0,-574.7974683544304,816236.0,30481.519607843136,816236.0,2275098.5196078434,816236.0,2546073.4509803923,816212.0,20669.50980392157,816212.0,2272594.205882353,816212.0,2266285.9607843137
804714.0,-1711.2025316455697,816336.0,30485.68316831683,816336.0,2275100.8415841586,816336.0,2546061.108910891,816312.0,20714.21568627451,816312.0,2272661.5588235296,816312.0,2266424.637254902
804792.0,-1890.746835443038,816436.0,30486.91089108911,816436.0,2275115.574257426,816436.0,2546082.7722772276,816412.0,20764.72277227723,816412.0,2272721.871287129,816412.0,2266564.2772277226
804870.0,2338.5696202531644,816536.0,30485.19801980198,816536.0,2275124.207920792,816536.0,2546066.9801980196,816512.0,20806.803921568626,816512.0,2272780.294117647,816512.0,2266711.843137255
804948.0,10978.425,816636.0,30490.346534653465,816636.0,2275099.1584158414,816636.0,2546063.217821782,816612.0,20853.176470588234,816612.0,2272825.588235294,816612.0,2266827.8235294116
805026.0,18028.443037974685,816736.0,30494.52475247525,816736.0,2275099.5247524753,816736.0,2546078.8613861385,816712.0,20903.254901960783,816712.0,2272890.098039216,816712.0,2266922.8039215687
805104.0,17072.3417721519,816836.0,30490.686274509804,816836.0,2275076.705882353,816836.0,2546080.137254902,816812.0,20938.098039215685,816812.0,2272934.0784313725,816812.0,2267013.431372549
805182.0,8811.898734177215,816936.0,30501.920792079207,816936.0,2275081.5148514854,816936.0,2546075.7425742573,816912.0,20964.529411764706,816912.0,2272951.6470588236,816912.0,2267085.8235294116
805260.0,467.873417721519,817036.0,30508.20792079208,817036.0,2275084.6831683167,817036.0,2546075.8415841586,817012.0,21009.333333333332,817012.0,2272972.3725490198,817012.0,2267107.7843137253
805338.0,-2661.126582278481,817136.0,30514.821782178216,817136.0,2275092.4851485146,817136.0,2546097.623762376,817112.0,21040.901960784315,817112.0,2272981.1960784313,817112.0,2267113.274509804
805416.0,-1922.5949367088608,817236.0,30508.603960396038,817236.0,2275086.6039603963,817236.0,2546106.108910891,817212.0,21065.455445544554,817212.0,2272980.217821782,817212.0,2267131.871287129
805494.0,-1414.5569620253164,817336.0,30515.118811881188,817336.0,2275087.4356435644,817336.0,2546117.5544554456,817312.0,21086.333333333332,817312.0,2272970.5,817312.0,2267098.5
805572.0,-2238.6329113924053,817436.0,30532.08823529412,817436.0,2275092.7647058824,817436.0,2546127.1470588236,817412.0,21091.823529411766,817412.0,2272961.382352941,817412.0,2267089.088235294
805650.0,-2784.275,817536.0,30540.69306930693,817536.0,2275094.0,817536.0,2546114.920792079,817512.0,21114.50980392157,817512.0,2272951.745098039,817512.0,2267048.362745098
805728.0,-2622.4556962025317,817636.0,30553.58415841584,817636.0,2275105.584158416,817636.0,2546141.118811881,817612.0,21118.754901960783,817612.0,2272950.1078431373,817612.0,2267041.5196078434
805806.0,-2536.7088607594937,817736.0,30568.435643564357,817736.0,2275099.089108911,817736.0,2546141.613861386,817712.0,21125.441176470587,817712.0,2272950.294117647,817712.0,2267019.9411764704
805884.0,-2523.2911392405063,817836.0,30569.742574257427,817836.0,2275108.0396039602,817836.0,2546153.297029703,817812.0,21129.72277227723,817812.0,2272944.801980198,817812.0,2267009.4851485146
805962.0,-2257.5443037974683,817936.0,30581.62376237624,817936.0,2275108.287128713,817936.0,2546174.336633663,817912.0,21125.823529411766,817912.0,2272968.117647059,817912.0,2267016.529411765
806040.0,-1859.873417721519,818036.0,30588.930693069306,818036.0,2275118.7227722774,818036.0,2546174.1386138615,818012.0,21123.70588235294,818012.0,2272954.156862745,818012.0,2267026.137254902
806118.0,-1561.4430379746836,818136.0,30608.79207920792,818136.0,2275126.613861386,818136.0,2546178.504950495,818112.0,21141.352941176472,818112.0,2272958.470588235,818112.0,2267054.68627451
806196.0,-1466.0,818236.0,30610.352941176472,818236.0,2275137.882352941,818236.0,2546205.0,818212.0,21159.0,818212.0,2272982.0,818212.0,2267089.0
806274.0,-1444.139240506329,818336.0,30632.950495049507,818336.0,2275141.306930693,818336.0,2546201.1386138615,818312.0,21157.039215686276,818312.0,2272982.9803921566,818312.0,2267121.3529411764
806352.0,-1269.253164556962,818436.0,30646.73267326733,818436.0,2275146.4653465347,818436.0,2546207.297029703,818412.0,21172.52475247525,818412.0,2273000.4653465347,818412.0,2267158.871287129
806430.0,-973.2405063291139,818536.0,30647.326732673268,818536.0,2275162.4653465347,818536.0,2546227.1386138615,818512.0,21194.87254901961,818512.0,2273037.137254902,818512.0,2267192.3333333335
806508.0,-810.7848101265823,818636.0,30662.920792079207,818636.0,2275161.702970297,818636.0,2546233.336633663,818612.0,21201.58823529412,818612.0,2273064.1470588236,818612.0,2267232.18627451
806586.0,-885.7974683544304,818736.0,30678.841584158417,818736.0,2275163.2277227724,818736.0,2546248.0297029703,818712.0,21230.264705882353,818712.0,2273081.5,818712.0,2267300.6470588236
806664.0,-1036.7848101265822,818836.0,30687.460784313724,818836.0,2275174.9215686275,818836.0,2546261.7352941176,818812.0,21246.382352941175,818812.0,2273107.088235294,818812.0,2267349.8235294116
806742.0,-1006.1875,818936.0,30711.20792079208,818936.0,2275185.613861386,818936.0,2546281.217821782,818912.0,21261.08823529412,818912.0,2273131.81372549,818912.0,2267417.8235294116
806820.0,-758.632911392405,819036.0,30721.544554455446,819036.0,2275184.089108911,819036.0,2546298.9801980196,819012.0,21280.058823529413,819012.0,2273176.794117647,819012.0,2267480.7352941176
806898.0,-491.9746835443038,819136.0,30740.534653465347,819136.0,2275184.623762376,819136.0,2546314.2673267326,819112.0,21303.833333333332,819112.0,2273211.5,819112.0,2267568.3333333335
806976.0,-334.7974683544304,819236.0,30765.287128712873,819236.0,2275189.9702970297,819236.0,2546334.0693069305,819212.0,21343.336633663366,819212.0,2273226.8613861385,819212.0,2267607.00990099
807054.0,-163.0,819336.0,30779.425742574258,819336.0,2275193.7524752477,819336.0,2546364.613861386,819312.0,21360.647058823528,819312.0,2273265.9803921566,819312.0,2267674.705882353
807132.0,120.36708860759495,819436.0,30799.352941176472,819436.0,2275204.098039216,819436.0,2546382.843137255,819412.0,21381.039215686276,819412.0,2273289.117647059,819412.0,2267756.6666666665
807210.0,450.5189873417722,819536.0,30818.20792079208,819536.0,2275211.5544554456,819536.0,2546387.7722772276,819512.0,21418.882352941175,819512.0,2273332.0,819512.0,2267844.588235294
807288.0,747.6075949367089,819636.0,30837.069306930694,819636.0,2275221.801980198,819636.0,2546402.5247524753,819612.0,21437.941176470587,819612.0,2273373.8039215687,819612.0,2267914.431372549
807366.0,1034.625,819736.0,30861.90099009901,819736.0,2275233.207920792,819736.0,2546432.782178218,819712.0,21466.392156862745,819712.0,2273411.568627451,819712.0,2267988.31372549
807444.0,1270.1518987341772,819836.0,30885.544554455446,819836.0,2275232.326732673,819836.0,2546451.574257426,819812.0,21490.823529411766,819812.0,2273441.7647058824,819812.0,2268057.294117647
807522.0,1343.5949367088608,819936.0,30908.356435643564,819936.0,2275237.7524752477,819936.0,2546458.1485148515,819912.0,21514.326732673268,819912.0,2273474.2574257427,819912.0,2268137.297029703
807600.0,1244.746835443038,820036.0,30929.08910891089,820036.0,2275248.5247524753,820036.0,2546480.673267327,820012.0,21545.0,820012.0,2273515.4411764704,820012.0,2268214.7352941176
807678.0,1007.0506329113924,820136.0,30928.686274509804,820136.0,2275259.3333333335,820136.0,2546491.6274509802,820112.0,21579.647058823528,820112.0,2273561.529411765,820112.0,2268296.1470588236
807756.0,633.873417721519,820236.0,30920.425742574258,820236.0,2275260.3960396037,820236.0,2546479.297029703,820212.0,21613.666666666668,820212.0,2273594.568627451,820212.0,2268378.8921568627
807834.0,128.65822784810126,820336.0,30915.48514851485,820336.0,2275254.326732673,820336.0,2546466.0198019804,820312.0,21643.91176470588,820312.0,2273621.294117647,820312.0,2268472.617647059
807912.0,-502.775,820436.0,30893.425742574258,820436.0,2275251.99009901,820436.0,2546439.782178218,820412.0,21670.09900990099,820412.0,2273660.386138614,820412.0,2268556.089108911
807990.0,-1154.860759493671,820536.0,30863.52475247525,820536.0,2275232.1881188117,820536.0,2546400.1782178218,820512.0,21701.176470588234,820512.0,2273699.0,820512.0,2268624.411764706
808068.0,-1568.506329113924,820636.0,30825.346534653465,820636.0,2275216.7425742573,820636.0,2546367.108910891,820612.0,21735.901960784315,820612.0,2273728.3529411764,820612.0,2268690.098039216
808146.0,-1607.6962025316457,820736.0,30784.50495049505,820736.0,2275207.079207921,820736.0,2546338.9504950494,820712.0,21756.49019607843,820712.0,2273748.7843137253,820712.0,2268736.568627451
808224.0,-1471.2911392405063,820836.0,30741.554455445545,820836.0,2275192.2475247523,820836.0,2546295.4653465347,820812.0,21783.235294117647,820812.0,2273765.529411765,820812.0,2268743.0588235296
808302.0,-1469.2025316455697,820936.0,30690.13725490196,820936.0,2275184.754901961,820936.0,2546249.343137255,820912.0,21811.666666666668,820912.0,2273753.6078431373,820912.0,2268681.4509803923
808380.0,-1646.0886075949368,821036.0,30656.326732673268,821036.0,2275163.663366337,821036.0,2546218.099009901,821012.0,21819.0099009901,821012.0,2273694.891089109,821012.0,2268521.574257426
808458.0,-1796.0886075949368,821136.0,30618.70297029703,821136.0,2275151.623762376,821136.0,2546188.4752475247,821112.0,21813.676470588234,821112.0,2273588.705882353,821112.0,2268265.9607843137
808536.0,-1747.506329113924,821236.0,30588.772277227723,821236.0,2275145.504950495,821236.0,2546163.5445544557,821212.0,21782.735294117647,821212.0,2273437.2843137253,821212.0,2267939.81372549
808614.0,-1534.175,821336.0,30561.247524752474,821336.0,2275124.2376237623,821336.0,2546134.1584158414,821312.0,21692.0,821312.0,2273269.882352941,821312.0,2267578.4411764704
808692.0,-1326.3291139240507,821436.0,30524.069306930694,821436.0,2275111.3168316833,821436.0,2546116.5346534653,821412.0,21555.29411764706,821412.0,2273092.9509803923,821412.0,2267203.901960784
808770.0,-1226.3037974683543,821536.0,30502.247524752474,821536.0,2275120.9405940594,821536.0,2546104.2772277226,821512.0,21388.392156862745,821512.0,2272912.274509804,821512.0,2266841.745098039
808848.0,-1228.4683544303798,821636.0,30483.382352941175,821636.0,2275111.588235294,821636.0,2546088.470588235,821612.0,21188.70297029703,821612.0,2272739.2475247523,821612.0,2266511.4851485146
808926.0,-1284.4177215189873,821736.0,30469.871287128713,821736.0,2275111.782178218,821736.0,2546076.8514851485,821712.0,20993.745098039217,821712.0,2272575.0588235296,821712.0,2266193.3529411764
809004.0,-1278.3037974683543,821836.0,30447.29702970297,821836.0,2275097.326732673,821836.0,2546065.168316832,821812.0,20815.823529411766,821812.0,2272455.411764706,821812.0,2265914.1764705884
809082.0,-1155.6708860759493,821936.0,30444.841584158417,821936.0,2275089.2772277226,821936.0,2546046.415841584,821912.0,20674.0,821912.0,2272330.3333333335,821912.0,2265662.3333333335
809160.0,-1049.9620253164558,822036.0,30433.118811881188,822036.0,2275088.881188119,822036.0,2546037.504950495,822012.0,20544.745098039217,822012.0,2272202.0196078434,822012.0,2265444.411764706
809238.0,-1106.8481012658228,822136.0,30421.663366336634,822136.0,2275099.801980198,822136.0,2546030.4653465347,822112.0,20450.235294117647,822112.0,2272128.0,822112.0,2265282.9411764704
809316.0,-1227.975,822236.0,30419.274509803923,822236.0,2275099.705882353,822236.0,2546028.745098039,822212.0,20374.941176470587,822212.0,2272083.7647058824,822212.0,2265162.5098039214
809394.0,-1223.1645569620252,822336.0,30421.09900990099,822336.0,2275090.1485148515,822336.0,2546032.0396039602,822312.0,20309.881188118812,822312.0,2272050.9306930695,822312.0,2265098.6435643565
809472.0,-1073.1645569620252,822436.0,30416.59405940594,822436.0,2275081.910891089,822436.0,2546041.3564356435,822412.0,20298.735294117647,822412.0,2272021.6960784313,822412.0,2265064.470588235
809550.0,-904.9873417721519,822536.0,30423.960396039605,822536.0,2275086.306930693,822536.0,2546033.3564356435,822512.0,20297.843137254902,822512.0,2272027.970588235,822512.0,2265070.1274509802
809628.0,-848.632911392405,822636.0,30432.455445544554,822636.0,2275089.5445544557,822636.0,2546050.663366337,822612.0,20290.91176470588,822612.0,2272026.7647058824,822612.0,2265089.8529411764
809706.0,-935.8481012658228,822736.0,30439.58415841584,822736.0,2275089.1485148515,822736.0,2546060.3663366335,822712.0,20307.86274509804,822712.0,2272055.5196078434,822712.0,2265160.31372549
809784.0,-1068.759493670886,822836.0,30448.42156862745,822836.0,2275107.5784313725,822836.0,2546075.6764705884,822812.0,20319.333333333332,822812.0,2272092.6666666665,822812.0,2265216.1666666665
809862.0,-1181.1375,822936.0,30463.881188118812,822936.0,2275098.00990099,822936.0,2546083.504950495,822912.0,20341.0,822912.0,2272141.588235294,822912.0,2265306.705882353
809940.0,-1296.012658227848,823036.0,30489.10891089109,823036.0,2275103.3168316833,823036.0,2546089.168316832,823012.0,20372.803921568626,823012.0,2272178.7156862747,823012.0,2265400.5392156863
810018.0,-1390.7974683544303,823136.0,30496.188118811882,823136.0,2275107.079207921,823136.0,2546106.297029703,823112.0,20395.920792079207,823112.0,2272217.5346534653,823112.0,2265471.198019802
810096.0,-1391.6582278481012,823236.0,30503.41584158416,823236.0,2275119.1386138615,823236.0,2546111.7425742573,823212.0,20433.392156862745,823212.0,2272278.3529411764,823212.0,2265583.745098039
810174.0,-1263.2025316455697,823336.0,30508.831683168315,823336.0,2275118.0693069305,823336.0,2546132.425742574,823312.0,20487.313725490196,823312.0,2272350.5490196077,823312.0,2265713.31372549
810252.0,-1092.9625,823436.0,30527.882352941175,823436.0,2275107.117647059,823436.0,2546115.470588235,823412.0,20540.176470588234,823412.0,2272408.6470588236,823412.0,2265866.0588235296
810330.0,-1058.7721518987341,823536.0,30527.0,823536.0,2275124.4851485146,823536.0,2546120.9801980196,823512.0,20576.725490196077,823512.0,2272485.7843137253,823512.0,2266001.431372549
810408.0,-1199.0506329113923,823636.0,30527.445544554455,823636.0,2275136.574257426,823636.0,2546140.782178218,823612.0,20619.980392156864,823612.0,2272555.117647059,823612.0,2266162.156862745
810486.0,-1291.367088607595,823736.0,30533.425742574258,823736.0,2275121.287128713,823736.0,2546157.099009901,823712.0,20669.0,823712.0,2272611.0,823712.0,2266320.0
810564.0,-1078.9620253164558,823836.0,30548.26732673267,823836.0,2275114.0396039602,823836.0,2546134.9306930695,823812.0,20723.455445544554,823812.0,2272707.0396039602,823812.0,2266463.5643564356
810642.0,-604.9620253164557,823936.0,30525.712871287127,823936.0,2275128.0,823936.0,2546134.0594059406,823912.0,20771.558823529413,823912.0,2272742.9411764704,823912.0,2266614.470588235
810720.0,-148.95,824036.0,30537.63725490196,824036.0,2275127.1666666665,824036.0,2546135.1960784313,824012.0,20849.07843137255,824012.0,2272819.1274509802,824012.0,2266736.9215686275
810798.0,178.1012658227848,824136.0,30549.851485148516,824136.0,2275111.2673267326,824136.0,2546138.584158416,824112.0,20884.666666666668,824112.0,2272860.254901961,824112.0,2266838.0
810876.0,484.8101265822785,824236.0,30545.138613861385,824236.0,2275120.2772277226,824236.0,2546125.0,824212.0,20946.264705882353,824212.0,2272914.970588235,824212.0,2266915.205882353
810954.0,826.3291139240506,824336.0,30552.049504950493,824336.0,2275133.900990099,824336.0,2546125.079207921,824312.0,20982.333333333332,824312.0,2272945.8725490198,824312.0,2266981.774509804
811032.0,1061.1645569620252,824436.0,30557.0,824436.0,2275124.0,824436.0,2546133.0,824412.0,21016.539215686276,824412.0,2272967.3235294116,824412.0,2267029.137254902
811110.0,1011.493670886076,824536.0,30550.069306930694,824536.0,2275130.9306930695,824536.0,2546125.079207921,824512.0,21050.287128712873,824512.0,2272976.0297029703,824512.0,2267067.7326732674
811188.0,629.125,824636.0,30560.78217821782,824636.0,2275129.0396039602,824636.0,2546145.584158416,824612.0,21093.78431372549,824612.0,2273001.4509803923,824612.0,2267076.3725490198
811266.0,32.518987341772146,824736.0,30569.647058823528,824736.0,2275129.9607843137,824736.0,2546157.529411765,824712.0,21091.941176470587,824712.0,2272979.6470588236,824712.0,2267070.411764706
811344.0,-518.0886075949367,824836.0,30583.30693069307,824836.0,2275132.8514851485,824836.0,2546149.4455445544,824812.0,21090.0,824812.0,2272965.9607843137,824812.0,2267072.2156862747
811422.0,-840.9113924050633,824936.0,30596.227722772277,824936.0,2275141.4653465347,824936.0,2546172.5148514854,824912.0,21092.352941176472,824912.0,2272967.137254902,824912.0,2267047.117647059
811500.0,-1075.2151898734178,825036.0,30607.237623762376,825036.0,2275141.0693069305,825036.0,2546184.2376237623,825012.0,21110.58823529412,825012.0,2272956.529411765,825012.0,2267021.6470588236
811578.0,-1352.6582278481012,825136.0,30618.128712871287,825136.0,2275152.0495049506,825136.0,2546193.287128713,825112.0,21110.78431372549,825112.0,2272956.725490196,825112.0,2266985.4509803923
811656.0,-1548.2278481012659,825236.0,30616.26732673267,825236.0,2275160.287128713,825236.0,2546202.198019802,825212.0,21109.0,825212.0,2272947.00990099,825212.0,2266963.2772277226
811734.0,-1466.775,825336.0,30630.41584158416,825336.0,2275152.891089109,825336.0,2546230.9306930695,825312.0,21106.81,825312.0,2272937.16,825312.0,2266968.49
811812.0,-1122.3417721518988,825436.0,30637.29411764706,825436.0,2275154.6470588236,825436.0,2546220.7647058824,825412.0,21111.615384615383,825412.0,2272942.019230769,825412.0,2266979.019230769
811890.0,-855.126582278481,825536.0,30653.68316831683,825536.0,2275166.326732673,825536.0,2546226.8415841586,825512.0,21121.59,825512.0,2272951.9,825512.0,2266972.34
811968.0,-944.4683544303797,825636.0,30662.029702970296,825636.0,2275167.1386138615,825636.0,2546251.2574257427,825612.0,21127.653846153848,825612.0,2272980.2115384615,825612.0,2267003.1634615385
812046.0,-901.632911392405,825736.0,30672.366336633662,825736.0,2275175.5148514854,825736.0,2546247.336633663,825712.0,21132.25,825712.0,2272974.8,825712.0,2267040.5
812124.0,-434.7848101265823,825836.0,30677.366336633662,825836.0,2275174.4752475247,825836.0,2546251.0495049506,825812.0,21150.25,825812.0,2272981.9,825812.0,2267085.45
812202.0,-307.72151898734177,825936.0,30692.970297029704,825936.0,2275168.1782178218,825936.0,2546274.4554455443,825912.0,21170.549019607843,825912.0,2273024.5490196077,825912.0,2267143.254901961
812280.0,-1377.886075949367,826036.0,30700.10891089109,826036.0,2275176.8613861385,826036.0,2546287.217821782,826012.0,21193.29411764706,826012.0,2273049.0588235296,826012.0,2267187.7647058824
812358.0,-2929.35,826136.0,30721.098039215685,826136.0,2275187.0392156863,826136.0,2546293.8235294116,826112.0,21210.254901960783,826112.0,2273072.3725490198,826112.0,2267239.9607843137
812436.0,-1305.0,826236.0,30727.58415841584,826236.0,2275185.0396039602,826236.0,2546302.128712871,826212.0,21227.07843137255,826212.0,2273096.9215686275,826212.0,2267309.1764705884
812514.0,6469.329113924051,826336.0,30737.48,826336.0,2275177.68,826336.0,2546318.22,826312.0,21250.764705882353,826312.0,2273122.1764705884,826312.0,2267381.117647059
812592.0,15675.468354430379,826436.0,30751.617647058825,826436.0,2275180.6470588236,826436.0,2546349.1078431373,826412.0,21275.235294117647,826412.0,2273157.470588235,826412.0,2267445.0784313725
812670.0,17938.98734177215,826536.0,30762.242574257427,826536.0,2275186.574257426,826536.0,2546353.5693069305,826512.0,21302.346534653465,826512.0,2273193.871287129,826512.0,2267508.1584158414
812748.0,11219.632911392406,826636.0,30771.648514851484,826636.0,2275192.5148514854,826636.0,2546349.113861386,826612.0,21326.166666666668,826612.0,2273219.0098039214,826612.0,2267575.6666666665
812826.0,2116.5696202531635,826736.0,30778.5,826736.0,2275198.5,826736.0,2546371.25,826712.0,21348.36274509804,826712.0,2273249.5098039214,826712.0,2267647.862745098
812904.0,-2390.126582278481,826836.0,30807.66990291262,826836.0,2275210.9223300973,826836.0,2546384.0970873786,826812.0,21378.558823529413,826812.0,2273284.117647059,826812.0,2267714.8235294116
812982.0,-2062.2,826936.0,30819.44,826936.0,2275225.8,826936.0,2546388.88,826912.0,21406.696078431374,826912.0,2273317.598039216,826912.0,2267777.0392156863
813060.0,-1212.0253164556962,827036.0,30846.823529411766,827036.0,2275227.882352941,827036.0,2546411.882352941,827012.0,21428.61,827012.0,2273359.5,827012.0,2267852.16
813138.0,-2048.3037974683543,827136.0,30859.4,827136.0,2275232.6,827136.0,2546437.1,827112.0,21452.543689320388,827112.0,2273398.155339806,827112.0,2267919.6893203883
813216.0,-3094.6835443037976,827236.0,30877.156862745098,827236.0,2275239.8039215687,827236.0,2546459.098039216,827212.0,21483.039215686276,827212.0,2273424.6666666665,827212.0,2267986.7843137253
