timestamps_ecg,ecg,timestamps_ppg_1_green,ppg_1_green,timestamps_ppg_1_red,ppg_1_red,timestamps_ppg_1_ir,ppg_1_ir,timestamps_ppg_2_green,ppg_2_green,timestamps_ppg_2_red,ppg_2_red,timestamps_ppg_2_ir,ppg_2_ir
725290.0,-1949.0,725314.0,31289.0,725314.0,2274565.0,725314.0,2544369.0,725301.0,28101.0,725301.0,2534342.0,725301.0,2540145.0
725368.0,-1737.7088607594937,725414.0,31255.336633663366,725414.0,2274574.900990099,725414.0,2544328.405940594,725401.0,28117.666666666668,725401.0,2534269.4509803923,725401.0,2539953.8235294116
725446.0,-1534.2151898734178,725514.0,31204.029702970296,725514.0,2274564.217821782,725514.0,2544304.4752475247,725501.0,28114.156862745098,725501.0,2534142.137254902,725501.0,2539585.862745098
725524.0,-1413.5569620253164,725614.0,31186.50495049505,725614.0,2274553.326732673,725614.0,2544289.4455445544,725601.0,28101.764705882353,725601.0,2533956.294117647,725601.0,2539081.588235294
725602.0,-1333.0506329113923,725714.0,31166.029411764706,725714.0,2274524.470588235,725714.0,2544270.931372549,725701.0,28083.49019607843,725701.0,2533720.137254902,725701.0,2538443.68627451
725680.0,-1252.1898734177216,725814.0,31155.59405940594,725814.0,2274529.584158416,725814.0,2544269.0594059406,725801.0,28004.574257425742,725801.0,2533481.4752475247,725801.0,2537843.6435643565
725758.0,-1142.5822784810127,725914.0,31128.940594059404,725914.0,2274515.108910891,725914.0,2544248.5247524753,725901.0,27919.382352941175,725901.0,2533298.5196078434,725901.0,2537369.794117647
725836.0,-1004.4,726014.0,31119.633663366338,726014.0,2274519.5247524753,726014.0,2544247.920792079,726001.0,27830.598039215685,726001.0,2533160.3333333335,726001.0,2537066.8333333335
725914.0,-892.5316455696202,726114.0,31105.336633663366,726114.0,2274510.891089109,726114.0,2544241.623762376,726101.0,27754.176470588234,726101.0,2533093.529411765,726101.0,2536856.0
725992.0,-800.5189873417721,726214.0,31094.08910891089,726214.0,2274513.6039603963,726214.0,2544232.891089109,726201.0,27692.166666666668,726201.0,2533034.1666666665,726201.0,2536732.6666666665
726070.0,-724.4430379746835,726314.0,31100.128712871287,726314.0,2274514.891089109,726314.0,2544223.9801980196,726301.0,27628.88,726301.0,2532986.65,726301.0,2536632.66
726148.0,-640.2151898734177,726414.0,31090.32,726414.0,2274521.23,726414.0,2544236.35,726401.0,27597.85436893204,726401.0,2532970.13592233,726401.0,2536601.495145631
726226.0,-515.8860759493671,726514.0,31088.12745098039,726514.0,2274506.294117647,726514.0,2544227.529411765,726501.0,27562.6,726501.0,2532966.4,726501.0,2536584.4
726304.0,-387.0379746835443,726614.0,31081.970297029704,726614.0,2274513.4752475247,726614.0,2544234.613861386,726601.0,27549.615384615383,726601.0,2532977.5384615385,726601.0,2536620.230769231
726382.0,-249.7721518987342,726714.0,31094.62376237624,726714.0,2274513.297029703,726714.0,2544238.5544554456,726701.0,27537.36,726701.0,2532994.68,726701.0,2536668.48
726460.0,-82.64556962025318,726814.0,31084.5,726814.0,2274519.6666666665,726814.0,2544230.6666666665,726801.0,27534.0,726801.0,2533025.6,726801.0,2536740.04
726538.0,126.44303797468353,726914.0,31091.039603960395,726914.0,2274516.891089109,726914.0,2544240.504950495,726901.0,27557.54,726901.0,2533088.2,726901.0,2536929.38
726616.0,377.0759493670886,727014.0,31111.04,727014.0,2274522.56,727014.0,2544252.84,727001.0,27572.44230769231,727001.0,2533129.1826923075,727001.0,2537042.9326923075
726694.0,589.6582278481012,727114.0,31124.647058823528,727114.0,2274532.843137255,727114.0,2544255.8039215687,727101.0,27585.9,727101.0,2533191.68,727101.0,2537178.36
726772.0,751.5189873417721,727214.0,31131.0,727214.0,2274518.2,727214.0,2544256.0,727201.0,27610.89423076923,727201.0,2533241.8653846155,727201.0,2537295.3173076925
726850.0,924.3544303797469,727314.0,31157.098039215685,727314.0,2274533.6078431373,727314.0,2544289.725490196,727301.0,27621.356435643564,727301.0,2533281.7425742573,727301.0,2537435.613861386
726928.0,1116.2125,727414.0,31159.32,727414.0,2274540.56,727414.0,2544302.12,727401.0,27630.41176470588,727401.0,2533346.1960784313,727401.0,2537578.9607843137
727006.0,1284.6962025316457,727514.0,31176.352941176472,727514.0,2274529.529411765,727514.0,2544313.705882353,727501.0,27645.117647058825,727501.0,2533406.3921568627,727501.0,2537724.2156862747
727084.0,1323.4303797468353,727614.0,31189.52475247525,727614.0,2274532.3960396037,727614.0,2544326.405940594,727601.0,27656.882352941175,727601.0,2533456.0,727601.0,2537877.9411764704
727162.0,1166.7088607594937,727714.0,31199.425742574258,727714.0,2274540.8118811883,727714.0,2544338.782178218,727701.0,27672.48514851485,727701.0,2533497.099009901,727701.0,2538046.9405940594
727240.0,835.9493670886077,727814.0,31202.74,727814.0,2274545.22,727814.0,2544350.88,727801.0,27686.58823529412,727801.0,2533561.7352941176,727801.0,2538209.5
727318.0,376.98734177215186,727914.0,31221.679611650485,727914.0,2274545.281553398,727914.0,2544356.873786408,727901.0,27702.0,727901.0,2533633.45,727901.0,2538347.95
727396.0,-112.75949367088612,728014.0,31216.22,728014.0,2274557.78,728014.0,2544358.0,728001.0,27730.03846153846,728001.0,2533689.0865384615,728001.0,2538477.923076923
727474.0,-541.7215189873418,728114.0,31238.147058823528,728114.0,2274553.9509803923,728114.0,2544364.9607843137,728101.0,27752.0,728101.0,2533748.5,728101.0,2538618.5
727552.0,-884.1772151898734,728214.0,31230.68,728214.0,2274559.66,728214.0,2544375.59,728201.0,27758.441176470587,728201.0,2533796.8921568627,728201.0,2538739.6764705884
727630.0,-1168.8227848101267,728314.0,31239.58823529412,728314.0,2274564.6764705884,728314.0,2544374.9411764704,728301.0,27772.22,728301.0,2533837.91,728301.0,2538851.45
727708.0,-1410.012658227848,728414.0,31239.29,728414.0,2274566.34,728414.0,2544371.66,728401.0,27789.194174757282,728401.0,2533871.932038835,728401.0,2538956.3106796117
727786.0,-1564.379746835443,728514.0,31252.07843137255,728514.0,2274572.911764706,728514.0,2544373.6274509802,728501.0,27796.882352941175,728501.0,2533894.098039216,728501.0,2539033.529411765
727864.0,-1599.55,728614.0,31238.47524752475,728614.0,2274572.782178218,728614.0,2544371.782178218,728601.0,27810.647058823528,728601.0,2533923.0588235296,728601.0,2539102.3529411764
727942.0,-1559.1012658227849,728714.0,31271.803921568626,728714.0,2274569.117647059,728714.0,2544366.862745098,728701.0,27828.098039215685,728701.0,2533936.0,728701.0,2539137.0588235296
728020.0,-1505.5696202531647,728814.0,31302.68316831683,728814.0,2274574.7524752477,728814.0,2544357.0198019804,728801.0,27836.745098039217,728801.0,2533940.843137255,728801.0,2539153.2156862747
728098.0,-1489.0886075949368,728914.0,31306.20792079208,728914.0,2274572.9603960398,728914.0,2544354.415841584,728901.0,27838.352941176472,728901.0,2533941.2352941176,728901.0,2539150.3529411764
728176.0,-1504.392405063291,729014.0,31321.851485148516,729014.0,2274573.7524752477,729014.0,2544379.168316832,729001.0,27841.356435643564,729001.0,2533922.9603960398,729001.0,2539120.584158416
728254.0,-1497.126582278481,729114.0,31324.9900990099,729114.0,2274574.079207921,729114.0,2544393.831683168,729101.0,27848.264705882353,729101.0,2533907.882352941,729101.0,2539072.9411764704
728332.0,-1439.7215189873418,729214.0,31313.10891089109,729214.0,2274572.574257426,729214.0,2544399.3168316833,729201.0,27859.07843137255,729201.0,2533876.2843137253,729201.0,2538986.4215686275
728410.0,-1352.5316455696202,729314.0,31309.69306930693,729314.0,2274571.306930693,729314.0,2544411.900990099,729301.0,27869.58823529412,729301.0,2533831.1764705884,729301.0,2538916.81372549
728488.0,-1299.012658227848,729414.0,31318.762376237624,729414.0,2274568.336633663,729414.0,2544433.5247524753,729401.0,27861.79411764706,729401.0,2533805.0,729401.0,2538838.7352941176
728566.0,-1315.675,729514.0,31330.93137254902,729514.0,2274580.4803921566,729514.0,2544426.0490196077,729501.0,27864.735294117647,729501.0,2533780.0,729501.0,2538744.3725490198
728644.0,-1351.0759493670887,729614.0,31340.72277227723,729614.0,2274585.702970297,729614.0,2544431.0396039602,729601.0,27865.861386138615,729601.0,2533769.9801980196,729601.0,2538675.386138614
728722.0,-1362.3544303797469,729714.0,31347.574257425742,729714.0,2274590.297029703,729714.0,2544440.702970297,729701.0,27865.235294117647,729701.0,2533734.705882353,729701.0,2538621.117647059
728800.0,-1373.2151898734178,729814.0,31364.138613861385,729814.0,2274602.0198019804,729814.0,2544437.5643564356,729801.0,27877.196078431374,729801.0,2533724.31372549,729801.0,2538568.1764705884
728878.0,-1394.1772151898733,729914.0,31375.52475247525,729914.0,2274601.5247524753,729914.0,2544448.4554455443,729901.0,27877.117647058825,729901.0,2533706.117647059,729901.0,2538571.0588235296
728956.0,-1406.8101265822784,730014.0,31383.673267326732,730014.0,2274607.7326732674,730014.0,2544453.9702970297,730001.0,27873.0,730001.0,2533727.4901960786,730001.0,2538567.6470588236
729034.0,-1379.126582278481,730114.0,31398.326732673268,730114.0,2274627.4554455443,730114.0,2544482.089108911,730101.0,27873.554455445545,730101.0,2533716.6336633665,730101.0,2538598.693069307
729112.0,-1323.8354430379748,730214.0,31410.37623762376,730214.0,2274631.5544554456,730214.0,2544512.0,730201.0,27877.63725490196,730201.0,2533735.1666666665,730201.0,2538608.9901960786
729190.0,-1294.7848101265822,730314.0,31423.643564356436,730314.0,2274622.5445544557,730314.0,2544535.6831683167,730301.0,27882.970588235294,730301.0,2533749.568627451,730301.0,2538651.294117647
729268.0,-1291.8,730414.0,31440.352941176472,730414.0,2274619.3529411764,730414.0,2544579.882352941,730401.0,27891.441176470587,730401.0,2533748.294117647,730401.0,2538668.2647058824
729346.0,-1295.7215189873418,730514.0,31455.574257425742,730514.0,2274621.9603960398,730514.0,2544596.168316832,730501.0,27895.79411764706,730501.0,2533773.5784313725,730501.0,2538735.1960784313
729424.0,-1290.2151898734178,730614.0,31459.574257425742,730614.0,2274633.7425742573,730614.0,2544597.6534653464,730601.0,27894.287128712873,730601.0,2533795.1485148515,730601.0,2538767.376237624
729502.0,-1278.5189873417721,730714.0,31476.148514851484,730714.0,2274640.623762376,730714.0,2544609.0297029703,730701.0,27918.803921568626,730701.0,2533799.2156862747,730701.0,2538814.9607843137
729580.0,-1292.139240506329,730814.0,31497.336633663366,730814.0,2274636.663366337,730814.0,2544616.3564356435,730801.0,27914.098039215685,730801.0,2533829.5098039214,730801.0,2538864.3529411764
729658.0,-1333.0759493670887,730914.0,31510.47524752475,730914.0,2274628.9306930695,730914.0,2544622.2277227724,730901.0,27919.0,730901.0,2533855.0,730901.0,2538932.0
729736.0,-1381.9620253164558,731014.0,31523.52475247525,731014.0,2274630.495049505,731014.0,2544629.2772277226,731001.0,27929.78431372549,731001.0,2533856.9607843137,731001.0,2538971.2156862747
729814.0,-1406.9493670886077,731114.0,31542.59405940594,731114.0,2274637.5247524753,731114.0,2544644.4653465347,731101.0,27928.07843137255,731101.0,2533888.705882353,731101.0,2539026.7647058824
729892.0,-1383.2151898734178,731214.0,31563.980198019803,731214.0,2274654.0,731214.0,2544653.0594059406,731201.0,27941.30693069307,731201.0,2533905.207920792,731201.0,2539106.9405940594
729970.0,-1346.8101265822784,731314.0,31586.50495049505,731314.0,2274659.198019802,731314.0,2544677.168316832,731301.0,27952.245098039217,731301.0,2533943.254901961,731301.0,2539154.774509804
730048.0,-1334.9620253164558,731414.0,31597.019801980197,731414.0,2274666.9801980196,731414.0,2544705.702970297,731401.0,27955.735294117647,731401.0,2533967.882352941,731401.0,2539209.0588235296
730126.0,-1353.6,731514.0,31606.823529411766,731514.0,2274666.2352941176,731514.0,2544719.794117647,731501.0,27961.352941176472,731501.0,2533975.3529411764,731501.0,2539288.0490196077
730204.0,-1372.1012658227849,731614.0,31631.89108910891,731614.0,2274676.0693069305,731614.0,2544743.207920792,731601.0,27978.57843137255,731601.0,2534018.754901961,731601.0,2539334.5196078434
730282.0,-1355.8101265822784,731714.0,31664.26732673267,731714.0,2274682.108910891,731714.0,2544762.5148514854,731701.0,27971.52475247525,731701.0,2534037.0594059406,731701.0,2539391.6831683167
730360.0,-1318.746835443038,731814.0,31679.178217821784,731814.0,2274690.0495049506,731814.0,2544763.594059406,731801.0,27983.49019607843,731801.0,2534069.3529411764,731801.0,2539462.3921568627
730438.0,-1185.2784810126582,731914.0,31697.27722772277,731914.0,2274722.4851485146,731914.0,2544779.99009901,731901.0,27992.58823529412,731901.0,2534088.1764705884,731901.0,2539515.1764705884
730516.0,-901.3037974683544,732014.0,31704.950495049507,732014.0,2274745.207920792,732014.0,2544797.2772277226,732001.0,28003.647058823528,732001.0,2534115.9215686275,732001.0,2539577.862745098
730594.0,-513.8607594936709,732114.0,31728.118811881188,732114.0,2274756.0594059406,732114.0,2544819.8118811883,732101.0,28009.92156862745,732101.0,2534128.274509804,732101.0,2539641.1960784313
730672.0,-112.0632911392405,732214.0,31747.425742574258,732214.0,2274766.4554455443,732214.0,2544852.7326732674,732201.0,28012.529411764706,732201.0,2534142.2352941176,732201.0,2539693.2352941176
730750.0,173.65822784810126,732314.0,31777.058823529413,732314.0,2274784.0,732314.0,2544866.705882353,732301.0,28018.26732673267,732301.0,2534161.801980198,732301.0,2539750.900990099
730828.0,319.40506329113924,732414.0,31799.78217821782,732414.0,2274791.336633663,732414.0,2544890.6435643565,732401.0,28031.764705882353,732401.0,2534174.3529411764,732401.0,2539809.382352941
730906.0,411.69620253164555,732514.0,31801.70297029703,732514.0,2274767.673267327,732514.0,2544878.7425742573,732501.0,28044.58823529412,732501.0,2534199.18627451,732501.0,2539857.205882353
730984.0,388.0,732614.0,31811.40594059406,732614.0,2274753.8118811883,732614.0,2544888.8415841586,732601.0,28050.08823529412,732601.0,2534225.401960784,732601.0,2539930.5588235296
731062.0,132.2784810126582,732714.0,31808.811881188118,732714.0,2274747.495049505,732714.0,2544871.0594059406,732701.0,28053.70588235294,732701.0,2534243.8235294116,732701.0,2539975.9411764704
731140.0,-359.3164556962025,732814.0,31801.049504950493,732814.0,2274742.2475247523,732814.0,2544863.9702970297,732801.0,28065.61386138614,732801.0,2534265.584158416,732801.0,2540013.5247524753
731218.0,-847.95,732914.0,31765.970297029704,732914.0,2274746.8217821782,732914.0,2544842.7623762377,732901.0,28061.29411764706,732901.0,2534276.588235294,732901.0,2540069.411764706
731296.0,-1139.0253164556962,733014.0,31745.138613861385,733014.0,2274737.3564356435,733014.0,2544799.712871287,733001.0,28067.92156862745,733001.0,2534287.411764706,733001.0,2540113.3333333335
731374.0,-1283.5949367088608,733114.0,31707.168316831685,733114.0,2274717.702970297,733114.0,2544756.2475247523,733101.0,28076.21568627451,733101.0,2534310.6274509802,733101.0,2540161.862745098
731452.0,-1417.9493670886077,733214.0,31663.425742574258,733214.0,2274712.8118811883,733214.0,2544724.5643564356,733201.0,28085.823529411766,733201.0,2534314.3529411764,733201.0,2540181.470588235
731530.0,-1611.5443037974683,733314.0,31629.465346534653,733314.0,2274691.584158416,733314.0,2544692.108910891,733301.0,28096.019801980197,733301.0,2534304.405940594,733301.0,2540142.2475247523
731608.0,-1772.886075949367,733414.0,31586.823529411766,733414.0,2274681.7647058824,733414.0,2544656.294117647,733401.0,28103.470588235294,733401.0,2534256.294117647,733401.0,2540011.0588235296
731686.0,-1768.2911392405063,733514.0,31545.029702970296,733514.0,2274677.425742574,733514.0,2544630.9504950494,733501.0,28101.06862745098,733501.0,2534146.0490196077,733501.0,2539730.568627451
731764.0,-1753.8101265822784,733614.0,31515.148514851484,733614.0,2274654.3564356435,733614.0,2544585.5346534653,733601.0,28096.519607843136,733601.0,2533981.7156862747,733601.0,2539289.7647058824
731842.0,-1807.9746835443038,733714.0,31483.227722772277,733714.0,2274656.7326732674,733714.0,2544589.6534653464,733701.0,28077.0,733701.0,2533768.0,733701.0,2538716.5
731920.0,-1614.1518987341772,733814.0,31450.79207920792,733814.0,2274640.0594059406,733814.0,2544571.4356435644,733801.0,28025.950495049507,733801.0,2533534.4455445544,733801.0,2538083.504950495
731998.0,-1196.1875,733914.0,31446.27722772277,733914.0,2274614.712871287,733914.0,2544536.8217821782,733901.0,27953.470588235294,733901.0,2533322.7647058824,733901.0,2537534.2352941176
732076.0,-1138.506329113924,734014.0,31418.257425742573,734014.0,2274625.9504950494,734014.0,2544534.0,734001.0,27876.529411764706,734001.0,2533166.2352941176,734001.0,2537139.0784313725
732154.0,-2123.873417721519,734114.0,31403.128712871287,734114.0,2274624.5643564356,734114.0,2544533.405940594,734101.0,27794.29411764706,734101.0,2533069.6470588236,734101.0,2536875.31372549
732232.0,-3142.53164556962,734214.0,31381.881188118812,734214.0,2274613.673267327,734214.0,2544519.089108911,734201.0,27704.647058823528,734201.0,2532998.1764705884,734201.0,2536702.411764706
732310.0,-622.2278481012659,734314.0,31378.059405940596,734314.0,2274602.881188119,734314.0,2544521.326732673,734301.0,27635.61386138614,734301.0,2532941.1584158414,734301.0,2536590.425742574
732388.0,7092.240506329114,734414.0,31380.950980392157,734414.0,2274597.1078431373,734414.0,2544488.2156862747,734401.0,27587.70588235294,734401.0,2532906.6764705884,734401.0,2536530.382352941
732466.0,15242.367088607596,734514.0,31376.049019607843,734514.0,2274607.8921568627,734514.0,2544509.7843137253,734501.0,27550.666666666668,734501.0,2532891.4509803923,734501.0,2536486.4607843137
732544.0,16584.58227848101,734614.0,31359.336633663366,734614.0,2274614.8613861385,734614.0,2544498.2376237623,734601.0,27517.676470588234,734601.0,2532897.774509804,734601.0,2536494.3529411764
732622.0,9886.987341772152,734714.0,31351.237623762376,734714.0,2274601.415841584,734714.0,2544484.415841584,734701.0,27497.617647058825,734701.0,2532909.529411765,734701.0,2536537.088235294
732700.0,1338.8860759493673,734814.0,31348.118811881188,734814.0,2274596.198019802,734814.0,2544491.6831683167,734801.0,27497.62376237624,734801.0,2532926.3663366335,734801.0,2536595.415841584
732778.0,-2921.4177215189875,734914.0,31355.603960396038,734914.0,2274602.6534653464,734914.0,2544502.4554455443,734901.0,27488.529411764706,734901.0,2532960.0588235296,734901.0,2536657.0
732856.0,-2760.1012658227846,735014.0,31358.821782178216,735014.0,2274587.00990099,735014.0,2544497.3564356435,735001.0,27490.21568627451,735001.0,2533002.9215686275,735001.0,2536732.1764705884
732934.0,-1959.4,735114.0,31361.79207920792,735114.0,2274595.306930693,735114.0,2544502.584158416,735101.0,27505.274509803923,735101.0,2533017.68627451,735101.0,2536832.294117647
733012.0,-2432.9620253164558,735214.0,31382.257425742573,735214.0,2274597.8415841586,735214.0,2544514.9702970297,735201.0,27512.764705882353,735201.0,2533059.6470588236,735201.0,2536942.7647058824
733090.0,-3108.0,735314.0,31382.178217821784,735314.0,2274587.0693069305,735314.0,2544526.0198019804,735301.0,27528.049504950493,735301.0,2533114.0198019804,735301.0,2537055.6534653464
733168.0,-3147.0379746835442,735414.0,31407.227722772277,735414.0,2274600.415841584,735414.0,2544556.7326732674,735401.0,27541.676470588234,735401.0,2533155.1470588236,735401.0,2537164.1764705884
733246.0,-3003.6455696202534,735514.0,31409.10891089109,735514.0,2274621.6039603963,735514.0,2544564.4554455443,735501.0,27554.79411764706,735501.0,2533188.0392156863,735501.0,2537291.5392156863
733324.0,-2948.2025316455697,735614.0,31428.196078431374,735614.0,2274630.9803921566,735614.0,2544576.343137255,735601.0,27569.833333333332,735601.0,2533252.0,735601.0,2537415.0
733402.0,-2862.227848101266,735714.0,31431.0,735714.0,2274629.415841584,735714.0,2544587.4752475247,735701.0,27588.41176470588,735701.0,2533296.411764706,735701.0,2537562.5
733480.0,-2723.8987341772154,735814.0,31445.47524752475,735814.0,2274629.8514851485,735814.0,2544593.2574257427,735801.0,27615.029702970296,735801.0,2533358.7227722774,735801.0,2537711.405940594
733558.0,-2571.0,735914.0,31458.09900990099,735914.0,2274624.108910891,735914.0,2544588.108910891,735901.0,27624.235294117647,735901.0,2533416.411764706,735901.0,2537854.3529411764
733636.0,-2400.6455696202534,736014.0,31476.633663366338,736014.0,2274611.3564356435,736014.0,2544599.4752475247,736001.0,27642.274509803923,736001.0,2533463.6666666665,736001.0,2538007.882352941
733714.0,-2206.0506329113923,736114.0,31488.21782178218,736114.0,2274613.108910891,736114.0,2544614.326732673,736101.0,27654.86274509804,736101.0,2533529.31372549,736101.0,2538164.9803921566
733792.0,-2010.8101265822784,736214.0,31481.881188118812,736214.0,2274620.495049505,736214.0,2544620.2475247523,736201.0,27667.019801980197,736201.0,2533582.1386138615,736201.0,2538302.198019802
733870.0,-1832.2,736314.0,31485.61386138614,736314.0,2274631.623762376,736314.0,2544626.613861386,736301.0,27699.882352941175,736301.0,2533618.843137255,736301.0,2538437.882352941
733948.0,-1679.7088607594937,736414.0,31493.336633663366,736414.0,2274626.871287129,736414.0,2544626.415841584,736401.0,27717.08823529412,736401.0,2533675.7352941176,736401.0,2538555.294117647
734026.0,-1560.240506329114,736514.0,31502.039603960395,736514.0,2274632.0396039602,736514.0,2544624.4356435644,736501.0,27720.176470588234,736501.0,2533733.4901960786,736501.0,2538665.029411765
734104.0,-1453.7088607594937,736614.0,31495.50495049505,736614.0,2274644.8118811883,736614.0,2544627.8613861385,736601.0,27737.823529411766,736601.0,2533782.5098039214,736601.0,2538767.970588235
734182.0,-1352.113924050633,736714.0,31506.72277227723,736714.0,2274638.8514851485,736714.0,2544638.910891089,736701.0,27743.823529411766,736701.0,2533826.6764705884,736701.0,2538843.7352941176
734260.0,-1243.2784810126582,736814.0,31515.470588235294,736814.0,2274633.7647058824,736814.0,2544644.9803921566,736801.0,27757.445544554455,736801.0,2533854.891089109,736801.0,2538905.5445544557
734338.0,-1103.4050632911392,736914.0,31515.534653465347,736914.0,2274626.405940594,736914.0,2544635.7425742573,736901.0,27774.941176470587,736901.0,2533866.3529411764,736901.0,2538938.117647059
734416.0,-957.0253164556962,737014.0,31514.27722772277,737014.0,2274626.168316832,737014.0,2544628.386138614,737001.0,27771.392156862745,737001.0,2533864.2352941176,737001.0,2538947.3725490198
734494.0,-823.7341772151899,737114.0,31518.27722772277,737114.0,2274631.2772277226,737114.0,2544647.673267327,737101.0,27782.725490196077,737101.0,2533845.0588235296,737101.0,2538941.68627451
734572.0,-674.2911392405064,737214.0,31528.435643564357,737214.0,2274640.7326732674,737214.0,2544646.1584158414,737201.0,27779.58823529412,737201.0,2533800.6470588236,737201.0,2538890.705882353
734650.0,-477.3544303797469,737314.0,31543.78217821782,737314.0,2274650.9306930695,737314.0,2544651.00990099,737301.0,27788.58415841584,737301.0,2533760.1485148515,737301.0,2538827.3663366335
734728.0,-250.8354430379747,737414.0,31545.58415841584,737414.0,2274657.415841584,737414.0,2544654.3168316833,737401.0,27812.176470588234,737401.0,2533729.411764706,737401.0,2538755.882352941
734806.0,-66.07499999999999,737514.0,31560.831683168315,737514.0,2274646.207920792,737514.0,2544679.584158416,737501.0,27817.666666666668,737501.0,2533705.8333333335,737501.0,2538669.1666666665
734884.0,54.41772151898734,737614.0,31574.970297029704,737614.0,2274650.613861386,737614.0,2544690.673267327,737601.0,27811.49019607843,737601.0,2533668.637254902,737601.0,2538562.862745098
734962.0,175.25316455696202,737714.0,31583.227722772277,737714.0,2274651.425742574,737714.0,2544694.574257426,737701.0,27809.20588235294,737701.0,2533637.1764705884,737701.0,2538503.088235294
735040.0,347.0506329113924,737814.0,31593.079207920793,737814.0,2274661.2277227724,737814.0,2544698.9306930695,737801.0,27814.47524752475,737801.0,2533617.702970297,737801.0,2538441.376237624
735118.0,552.873417721519,737914.0,31600.80198019802,737914.0,2274665.4653465347,737914.0,2544704.4356435644,737901.0,27815.235294117647,737901.0,2533595.6470588236,737901.0,2538398.705882353
735196.0,627.3037974683544,738014.0,31611.029411764706,738014.0,2274676.970588235,738014.0,2544725.529411765,738001.0,27814.254901960783,738001.0,2533586.274509804,738001.0,2538392.9803921566
735274.0,428.2025316455696,738114.0,31614.79207920792,738114.0,2274695.871287129,738114.0,2544728.5445544557,738101.0,27816.176470588234,738101.0,2533597.3333333335,738101.0,2538401.254901961
735352.0,10.784810126582272,738214.0,31623.50495049505,738214.0,2274692.900990099,738214.0,2544750.920792079,738201.0,27821.941176470587,738201.0,2533603.411764706,738201.0,2538391.294117647
735430.0,-512.5443037974684,738314.0,31636.425742574258,738314.0,2274678.405940594,738314.0,2544770.0,738301.0,27821.920792079207,738301.0,2533597.7623762377,738301.0,2538428.9702970297
735508.0,-1009.2784810126582,738414.0,31657.079207920793,738414.0,2274691.376237624,738414.0,2544770.0,738401.0,27822.352941176472,738401.0,2533607.1764705884,738401.0,2538464.2352941176
735586.0,-1410.5189873417721,738514.0,31671.257425742573,738514.0,2274695.9702970297,738514.0,2544783.5445544557,738501.0,27829.56862745098,738501.0,2533627.4509803923,738501.0,2538496.9607843137
735664.0,-1707.73417721519,738614.0,31687.41584158416,738614.0,2274686.782178218,738614.0,2544803.9801980196,738601.0,27834.274509803923,738601.0,2533650.931372549,738601.0,2538547.598039216
735742.0,-1888.175,738714.0,31700.08910891089,738714.0,2274690.4455445544,738714.0,2544820.712871287,738701.0,27837.470588235294,738701.0,2533669.2647058824,738701.0,2538562.8235294116
735820.0,-1999.6708860759493,738814.0,31713.831683168315,738814.0,2274706.2277227724,738814.0,2544835.4851485146,738801.0,27848.56862745098,738801.0,2533694.137254902,738801.0,2538592.4901960786
735898.0,-2084.0759493670885,738914.0,31735.392156862745,738914.0,2274714.4411764704,738914.0,2544845.637254902,738901.0,27845.653465346535,738901.0,2533713.425742574,738901.0,2538645.9603960398
735976.0,-2123.1518987341774,739014.0,31750.554455445545,739014.0,2274716.5346534653,739014.0,2544855.5643564356,739001.0,27854.92156862745,739001.0,2533729.3725490198,739001.0,2538689.6078431373
736054.0,-2089.3544303797466,739114.0,31762.930693069306,739114.0,2274722.4752475247,739114.0,2544869.425742574,739101.0,27867.549019607843,739101.0,2533755.568627451,739101.0,2538745.529411765
736132.0,-1975.1898734177216,739214.0,31777.27722772277,739214.0,2274731.792079208,739214.0,2544887.1881188117,739201.0,27873.29411764706,739201.0,2533772.117647059,739201.0,2538808.1764705884
736210.0,-1858.607594936709,739314.0,31796.40594059406,739314.0,2274728.0693069305,739314.0,2544897.0495049506,739301.0,27888.70588235294,739301.0,2533793.3725490198,739301.0,2538859.470588235
736288.0,-1789.5189873417721,739414.0,31813.653465346535,739414.0,2274736.4752475247,739414.0,2544908.099009901,739401.0,27898.0099009901,739401.0,2533819.920792079,739401.0,2538914.6831683167
736366.0,-1734.9113924050632,739514.0,31825.37623762376,739514.0,2274754.99009901,739514.0,2544932.4752475247,739501.0,27896.519607843136,739501.0,2533842.8921568627,739501.0,2538981.588235294
736444.0,-1673.8101265822784,739614.0,31842.80198019802,739614.0,2274751.673267327,739614.0,2544948.118811881,739601.0,27904.29411764706,739601.0,2533873.2843137253,739601.0,2539043.4215686275
736522.0,-1591.2784810126582,739714.0,31860.663366336634,739714.0,2274758.920792079,739714.0,2544964.198019802,739701.0,27931.647058823528,739701.0,2533897.9411764704,739701.0,2539106.411764706
736600.0,-1524.5189873417721,739814.0,31881.19801980198,739814.0,2274761.871287129,739814.0,2544977.4455445544,739801.0,27954.0,739801.0,2533918.5392156863,739801.0,2539160.9607843137
736678.0,-1487.0,739914.0,31903.941176470587,739914.0,2274764.7647058824,739914.0,2544984.705882353,739901.0,27964.049019607843,739901.0,2533942.245098039,739901.0,2539198.911764706
736756.0,-1453.4303797468353,740014.0,31916.148514851484,740014.0,2274778.1485148515,740014.0,2544992.871287129,740001.0,27982.47524752475,740001.0,2533959.8613861385,740001.0,2539261.1881188117
736834.0,-1448.126582278481,740114.0,31931.72277227723,740114.0,2274786.386138614,740114.0,2544994.7425742573,740101.0,27984.274509803923,740101.0,2533971.9607843137,740101.0,2539323.5098039214
736912.0,-1442.2278481012659,740214.0,31951.90099009901,740214.0,2274785.118811881,740214.0,2545021.7722772276,740201.0,27985.058823529413,740201.0,2533995.7647058824,740201.0,2539375.2352941176
736990.0,-1418.5625,740314.0,31970.861386138615,740314.0,2274790.0594059406,740314.0,2545045.4554455443,740301.0,27993.666666666668,740301.0,2534027.3333333335,740301.0,2539441.6666666665
737068.0,-1390.2025316455697,740414.0,31988.128712871287,740414.0,2274807.5643564356,740414.0,2545071.6336633665,740401.0,27984.058823529413,740401.0,2534048.156862745,740401.0,2539510.882352941
737146.0,-1339.6962025316457,740514.0,32007.58415841584,740514.0,2274808.4554455443,740514.0,2545091.4356435644,740501.0,27981.10891089109,740501.0,2534072.2376237623,740501.0,2539570.792079208
737224.0,-1290.0632911392404,740614.0,32026.059405940596,740614.0,2274802.376237624,740614.0,2545113.673267327,740601.0,27982.980392156864,740601.0,2534087.568627451,740601.0,2539640.754901961
737302.0,-1247.7848101265822,740714.0,32037.67,740714.0,2274814.96,740714.0,2545115.0,740701.0,27992.20588235294,740701.0,2534097.470588235,740701.0,2539701.205882353
737380.0,-1199.3291139240507,740814.0,32041.805825242718,740814.0,2274821.3980582524,740814.0,2545114.0388349514,740801.0,27991.25,740801.0,2534124.75,740801.0,2539741.5
737458.0,-1178.367088607595,740914.0,32044.27722772277,740914.0,2274813.8415841586,740914.0,2545110.5148514854,740901.0,27999.56730769231,740901.0,2534141.769230769,740901.0,2539807.9423076925
737536.0,-1164.9746835443038,741014.0,32016.237623762376,741014.0,2274804.8613861385,741014.0,2545097.2376237623,741001.0,28015.47,741001.0,2534165.04,741001.0,2539862.92
737614.0,-1141.2784810126582,741114.0,31990.336633663366,741114.0,2274798.405940594,741114.0,2545059.9702970297,741101.0,28020.18446601942,741101.0,2534186.0388349514,741101.0,2539915.4174757283
737692.0,-1109.8481012658228,741214.0,31973.435643564357,741214.0,2274776.0,741214.0,2545017.4455445544,741201.0,28020.6,741201.0,2534198.32,741201.0,2539969.72
737770.0,-1067.5443037974683,741314.0,31927.158415841583,741314.0,2274773.168316832,741314.0,2544983.702970297,741301.0,28035.92,741301.0,2534220.34,741301.0,2540018.5
737848.0,-1029.493670886076,741414.0,31882.603960396038,741414.0,2274765.2475247523,741414.0,2544946.079207921,741401.0,28044.42,741401.0,2534234.9,741401.0,2540055.82
737926.0,-976.4810126582279,741514.0,31842.12,741514.0,2274759.28,741514.0,2544912.4,741501.0,28048.346153846152,741501.0,2534212.3076923075,741501.0,2540001.519230769
738004.0,-913.8101265822785,741614.0,31805.3786407767,741614.0,2274737.5339805824,741614.0,2544873.145631068,741601.0,28056.9,741601.0,2534138.8,741601.0,2539824.0
738082.0,-875.75,741714.0,31770.28,741714.0,2274732.22,741714.0,2544838.54,741701.0,28055.417475728154,741701.0,2534018.776699029,741701.0,2539477.194174757
738160.0,-844.506329113924,741814.0,31737.176470588234,741814.0,2274715.7352941176,741814.0,2544813.470588235,741801.0,28047.735294117647,741801.0,2533824.2156862747,741801.0,2538969.6666666665
738238.0,-826.620253164557,741914.0,31700.92,741914.0,2274705.29,741914.0,2544790.11,741901.0,28014.401960784315,741901.0,2533598.431372549,741901.0,2538336.725490196
738316.0,-812.367088607595,742014.0,31669.41176470588,742014.0,2274695.3921568627,742014.0,2544767.6078431373,742001.0,27960.970588235294,742001.0,2533368.2352941176,742001.0,2537715.588235294
738394.0,-785.7215189873418,742114.0,31642.811881188118,742114.0,2274682.99009901,742114.0,2544777.1485148515,742101.0,27859.960784313724,742101.0,2533176.529411765,742101.0,2537236.4411764704
738472.0,-749.3417721518987,742214.0,31629.940594059404,742214.0,2274677.0495049506,742214.0,2544766.2574257427,742201.0,27756.039215686276,742201.0,2533029.470588235,742201.0,2536880.5588235296
738550.0,-690.0379746835443,742314.0,31616.75,742314.0,2274673.05,742314.0,2544756.85,742301.0,27671.68316831683,742301.0,2532943.702970297,742301.0,2536662.336633663
738628.0,-612.367088607595,742414.0,31602.235294117647,742414.0,2274677.8235294116,742414.0,2544752.911764706,742401.0,27587.37254901961,742401.0,2532864.1764705884,742401.0,2536501.3921568627
738706.0,-481.3544303797468,742514.0,31588.75,742514.0,2274670.74,742514.0,2544735.65,742501.0,27498.56,742501.0,2532848.52,742501.0,2536407.64
738784.0,-243.9873417721519,742614.0,31567.126213592233,742614.0,2274666.980582524,742614.0,2544738.6116504855,742601.0,27458.076923076922,742601.0,2532787.076923077,742601.0,2536328.3076923075
738862.0,134.53164556962025,742714.0,31565.1,742714.0,2274652.7,742714.0,2544727.1,742701.0,27409.0,742701.0,2532796.431372549,742701.0,2536312.0784313725
738940.0,641.6,742814.0,31542.235294117647,742814.0,2274650.68627451,742814.0,2544710.1960784313,742801.0,27372.811881188118,742801.0,2532779.287128713,742801.0,2536320.801980198
739018.0,1108.4810126582279,742914.0,31569.76,742914.0,2274655.4,742914.0,2544711.76,742901.0,27340.20588235294,742901.0,2532793.5784313725,742901.0,2536344.68627451
739096.0,1365.3037974683543,743014.0,31545.49019607843,743014.0,2274638.254901961,743014.0,2544707.6666666665,743001.0,27332.58823529412,743001.0,2532813.911764706,743001.0,2536393.205882353
739174.0,1422.3164556962026,743114.0,31561.51485148515,743114.0,2274652.7623762377,743114.0,2544692.0594059406,743101.0,27337.0,743101.0,2532829.5,743101.0,2536461.8333333335
739252.0,1334.26582278481,743214.0,31539.73267326733,743214.0,2274648.405940594,743214.0,2544692.504950495,743201.0,27349.50495049505,743201.0,2532864.871287129,743201.0,2536523.306930693
739330.0,1076.7974683544303,743314.0,31572.960396039605,743314.0,2274636.9603960398,743314.0,2544681.8118811883,743301.0,27369.686274509804,743301.0,2532902.5490196077,743301.0,2536607.156862745
739408.0,633.3417721518988,743414.0,31572.534653465347,743414.0,2274636.326732673,743414.0,2544653.297029703,743401.0,27370.86274509804,743401.0,2532932.745098039,743401.0,2536704.2156862747
739486.0,138.0253164556962,743514.0,31590.41176470588,743514.0,2274647.0196078434,743514.0,2544663.470588235,743501.0,27371.529411764706,743501.0,2532974.9411764704,743501.0,2536821.588235294
739564.0,-185.32911392405063,743614.0,31611.0,743614.0,2274648.0,743614.0,2544687.0,743601.0,27383.176470588234,743601.0,2533006.117647059,743601.0,2536927.745098039
739642.0,-288.1392405063291,743714.0,31617.930693069306,743714.0,2274642.0594059406,743714.0,2544714.7227722774,743701.0,27396.43137254902,743701.0,2533042.745098039,743701.0,2537036.705882353
739720.0,-329.37974683544303,743814.0,31606.237623762376,743814.0,2274646.900990099,743814.0,2544710.099009901,743801.0,27419.960396039605,743801.0,2533097.4851485146,743801.0,2537173.504950495
739798.0,-442.4,743914.0,31600.178217821784,743914.0,2274662.5247524753,743914.0,2544735.2277227724,743901.0,27441.225490196077,743901.0,2533143.5392156863,743901.0,2537296.745098039
739876.0,-571.8607594936709,744014.0,31606.72277227723,744014.0,2274669.7227722774,744014.0,2544738.881188119,744001.0,27450.382352941175,744001.0,2533189.1470588236,744001.0,2537412.5
739954.0,-587.0886075949367,744114.0,31611.752475247526,744114.0,2274658.594059406,744114.0,2544745.6534653464,744101.0,27474.333333333332,744101.0,2533239.156862745,744101.0,2537543.617647059
740032.0,-550.4810126582279,744214.0,31615.762376237624,744214.0,2274660.8217821782,744214.0,2544756.3465346536,744201.0,27486.63725490196,744201.0,2533294.598039216,744201.0,2537693.3235294116
740110.0,-516.4430379746835,744314.0,31637.40594059406,744314.0,2274672.168316832,744314.0,2544744.900990099,744301.0,27503.058823529413,744301.0,2533343.794117647,744301.0,2537833.7647058824
740188.0,-280.7721518987342,744414.0,31641.735294117647,744414.0,2274678.470588235,744414.0,2544752.205882353,744401.0,27515.41584158416,744401.0,2533404.4851485146,744401.0,2537969.5544554456
740266.0,91.64556962025317,744514.0,31641.09900990099,744514.0,2274679.0,744514.0,2544767.415841584,744501.0,27524.647058823528,744501.0,2533451.2352941176,744501.0,2538097.3529411764
740344.0,9.772151898734194,744614.0,31646.346534653465,744614.0,2274659.3960396037,744614.0,2544768.108910891,744601.0,27555.58823529412,744601.0,2533498.117647059,744601.0,2538219.0784313725
740422.0,-936.4430379746835,744714.0,31652.287128712873,744714.0,2274660.5247524753,744714.0,2544767.118811881,744701.0,27573.901960784315,744701.0,2533534.431372549,744701.0,2538320.2156862747
740500.0,-1453.8101265822784,744814.0,31653.871287128713,744814.0,2274674.9405940594,744814.0,2544784.425742574,744801.0,27577.235294117647,744801.0,2533570.529411765,744801.0,2538410.882352941
740578.0,1676.0625,744914.0,31639.356435643564,744914.0,2274661.495049505,744914.0,2544824.900990099,744901.0,27592.841584158417,744901.0,2533606.8415841586,744901.0,2538502.306930693
740656.0,9332.341772151898,745014.0,31653.178217821784,745014.0,2274664.9603960398,745014.0,2544845.4752475247,745001.0,27605.5,745001.0,2533622.0,745001.0,2538561.0
740734.0,16619.32911392405,745114.0,31656.841584158417,745114.0,2274656.7425742573,745114.0,2544840.425742574,745101.0,27618.049019607843,745101.0,2533639.4509803923,745101.0,2538591.8921568627
740812.0,16776.240506329115,745214.0,31666.058823529413,745214.0,2274675.588235294,745214.0,2544848.0588235296,745201.0,27630.460784313724,745201.0,2533650.31372549,745201.0,2538618.137254902
740890.0,9481.405063291139,745314.0,31664.752475247526,745314.0,2274658.079207921,745314.0,2544848.376237624,745301.0,27627.029411764706,745301.0,2533640.705882353,745301.0,2538600.882352941
740968.0,1341.7721518987341,745414.0,31676.029702970296,745414.0,2274661.8217821782,745414.0,2544861.6336633665,745401.0,27632.539215686276,745401.0,2533624.725490196,745401.0,2538545.4509803923
741046.0,-1971.8987341772151,745514.0,31669.49504950495,745514.0,2274648.9504950494,745514.0,2544829.3564356435,745501.0,27649.029702970296,745501.0,2533601.0396039602,745501.0,2538486.306930693
741124.0,-1224.0379746835442,745614.0,31667.0,745614.0,2274651.2574257427,745614.0,2544831.7326732674,745601.0,27648.07843137255,745601.0,2533568.9215686275,745601.0,2538403.274509804
741202.0,-481.53164556962025,745714.0,31697.118811881188,745714.0,2274659.9504950494,745714.0,2544835.0,745701.0,27646.098039215685,745701.0,2533534.31372549,745701.0,2538310.0196078434
741280.0,-1261.8354430379748,745814.0,31696.08910891089,745814.0,2274658.9504950494,745814.0,2544851.00990099,745801.0,27650.882352941175,745801.0,2533503.1764705884,745801.0,2538213.117647059
741358.0,-1975.860759493671,745914.0,31706.544554455446,745914.0,2274658.7524752477,745914.0,2544853.7425742573,745901.0,27650.0,745901.0,2533466.3333333335,745901.0,2538151.3333333335
741436.0,-1851.620253164557,746014.0,31713.970297029704,746014.0,2274645.6336633665,746014.0,2544862.6534653464,746001.0,27650.666666666668,746001.0,2533439.7843137253,746001.0,2538109.294117647
741514.0,-1660.45,746114.0,31720.07843137255,746114.0,2274670.745098039,746114.0,2544873.254901961,746101.0,27641.970297029704,746101.0,2533423.108910891,746101.0,2538055.089108911
741592.0,-1572.7215189873418,746214.0,31723.425742574258,746214.0,2274679.1485148515,746214.0,2544883.128712871,746201.0,27648.71568627451,746201.0,2533421.0,746201.0,2538027.4607843137
741670.0,-1400.6582278481012,746314.0,31742.27722772277,746314.0,2274680.8118811883,746314.0,2544881.079207921,746301.0,27649.323529411766,746301.0,2533418.617647059,746301.0,2538013.911764706
741748.0,-1243.113924050633,746414.0,31754.158415841583,746414.0,2274683.386138614,746414.0,2544901.871287129,746401.0,27654.225490196077,746401.0,2533412.0,746401.0,2538027.1470588236
741826.0,-1095.493670886076,746514.0,31771.712871287127,746514.0,2274714.0594059406,746514.0,2544915.415841584,746501.0,27657.098039215685,746501.0,2533419.4411764704,746501.0,2538049.31372549
741904.0,-921.2658227848101,746614.0,31776.333333333332,746614.0,2274741.3333333335,746614.0,2544921.6666666665,746601.0,27655.235294117647,746601.0,2533449.117647059,746601.0,2538082.3235294116
741982.0,-730.9240506329114,746714.0,31785.455445544554,746714.0,2274734.2772277226,746714.0,2544935.108910891,746701.0,27660.745098039217,746701.0,2533466.4901960786,746701.0,2538132.8921568627
742060.0,-560.2151898734177,746814.0,31797.435643564357,746814.0,2274751.4554455443,746814.0,2544933.2772277226,746801.0,27669.166666666668,746801.0,2533477.1666666665,746801.0,2538169.8333333335
742138.0,-428.0632911392405,746914.0,31806.069306930694,746914.0,2274764.3663366335,746914.0,2544941.0396039602,746901.0,27693.960396039605,746901.0,2533500.673267327,746901.0,2538214.5445544557
742216.0,-299.775,747014.0,31829.58415841584,747014.0,2274759.6336633665,747014.0,2544952.3663366335,747001.0,27688.0,747001.0,2533518.470588235,747001.0,2538282.274509804
742294.0,-174.0,747114.0,31836.47524752475,747114.0,2274740.425742574,747114.0,2544972.1881188117,747101.0,27688.823529411766,747101.0,2533535.529411765,747101.0,2538335.529411765
742372.0,-77.24050632911393,747214.0,31849.30693069307,747214.0,2274740.871287129,747214.0,2544978.168316832,747201.0,27698.13725490196,747201.0,2533552.0,747201.0,2538396.411764706
742450.0,12.696202531645568,747314.0,31871.176470588234,747314.0,2274741.529411765,747314.0,2544996.7647058824,747301.0,27726.529411764706,747301.0,2533597.843137255,747301.0,2538441.862745098
742528.0,109.27848101265822,747414.0,31880.148514851484,747414.0,2274731.831683168,747414.0,2545005.108910891,747401.0,27721.529411764706,747401.0,2533597.470588235,747401.0,2538503.3529411764
742606.0,247.81012658227849,747514.0,31888.90099009901,747514.0,2274731.9504950494,747514.0,2545024.2673267326,747501.0,27730.313725490196,747501.0,2533622.4509803923,747501.0,2538575.1960784313
742684.0,389.88607594936707,747614.0,31905.534653465347,747614.0,2274736.108910891,747614.0,2545039.118811881,747601.0,27738.059405940596,747601.0,2533658.495049505,747601.0,2538630.4455445544
742762.0,527.4430379746835,747714.0,31918.90099009901,747714.0,2274737.0,747714.0,2545038.1782178218,747701.0,27741.08823529412,747701.0,2533683.254901961,747701.0,2538702.4803921566
742840.0,719.367088607595,747814.0,31931.554455445545,747814.0,2274753.0396039602,747814.0,2545057.6435643565,747801.0,27749.91176470588,747801.0,2533708.745098039,747801.0,2538750.5196078434
742918.0,956.2911392405064,747914.0,31949.91176470588,747914.0,2274761.8039215687,747914.0,2545078.1960784313,747901.0,27767.470588235294,747901.0,2533732.294117647,747901.0,2538825.7352941176
742996.0,1192.7721518987341,748014.0,31966.564356435643,748014.0,2274765.584158416,748014.0,2545092.089108911,748001.0,27771.803921568626,748001.0,2533749.1666666665,748001.0,2538891.7156862747
743074.0,1413.8987341772151,748114.0,31984.38613861386,748114.0,2274781.425742574,748114.0,2545105.4554455443,748101.0,27788.764705882353,748101.0,2533764.901960784,748101.0,2538957.401960784
743152.0,1601.240506329114,748214.0,32005.21782178218,748214.0,2274785.6039603963,748214.0,2545108.0594059406,748201.0,27792.735294117647,748201.0,2533805.205882353,748201.0,2539016.705882353
743230.0,1741.493670886076,748314.0,32019.27722772277,748314.0,2274782.4752475247,748314.0,2545122.1584158414,748301.0,27794.78431372549,748301.0,2533815.245098039,748301.0,2539079.9901960786
743308.0,1857.7,748414.0,32038.425742574258,748414.0,2274784.3960396037,748414.0,2545146.5148514854,748401.0,27806.455445544554,748401.0,2533824.8118811883,748401.0,2539138.99009901
743386.0,1967.113924050633,748514.0,32064.92156862745,748514.0,2274784.1960784313,748514.0,2545158.0588235296,748501.0,27809.725490196077,748501.0,2533851.882352941,748501.0,2539193.4509803923
743464.0,1977.632911392405,748614.0,32077.871287128713,748614.0,2274790.2772277226,748614.0,2545172.584158416,748601.0,27819.274509803923,748601.0,2533877.9215686275,748601.0,2539244.843137255
743542.0,1754.4683544303798,748714.0,32084.10891089109,748714.0,2274803.128712871,748714.0,2545195.217821782,748701.0,27836.647058823528,748701.0,2533900.9411764704,748701.0,2539281.8235294116
743620.0,1293.253164556962,748814.0,32101.811881188118,748814.0,2274812.6534653464,748814.0,2545219.3960396037,748801.0,27838.392156862745,748801.0,2533917.0588235296,748801.0,2539344.274509804
743698.0,717.0253164556962,748914.0,32126.742574257427,748914.0,2274818.3465346536,748914.0,2545235.623762376,748901.0,27840.352941176472,748901.0,2533938.8235294116,748901.0,2539401.9215686275
743776.0,165.72151898734177,749014.0,32150.10891089109,749014.0,2274825.673267327,749014.0,2545243.9405940594,749001.0,27853.235294117647,749001.0,2533959.294117647,749001.0,2539453.7647058824
743854.0,-296.50632911392404,749114.0,32165.930693069306,749114.0,2274836.891089109,749114.0,2545260.336633663,749101.0,27858.49019607843,749101.0,2533980.3921568627,749101.0,2539512.1960784313
743932.0,-668.6962025316456,749214.0,32177.56862745098,749214.0,2274829.9607843137,749214.0,2545275.725490196,749201.0,27872.920792079207,749201.0,2533991.8613861385,749201.0,2539560.2376237623
744010.0,-908.4,749314.0,32193.425742574258,749314.0,2274842.1386138615,749314.0,2545285.207920792,749301.0,27876.56862745098,749301.0,2534010.4607843137,749301.0,2539622.098039216
744088.0,-1026.4177215189873,749414.0,32197.039603960395,749414.0,2274852.584158416,749414.0,2545288.920792079,749401.0,27886.441176470587,749401.0,2534045.5392156863,749401.0,2539674.0196078434
744166.0,-1081.1772151898733,749514.0,32201.69306930693,749514.0,2274858.2673267326,749514.0,2545279.2772277226,749501.0,27891.0,749501.0,2534074.911764706,749501.0,2539728.588235294
744244.0,-1098.2911392405063,749614.0,32194.58415841584,749614.0,2274838.4653465347,749614.0,2545264.7326732674,749601.0,27901.50980392157,749601.0,2534086.2843137253,749601.0,2539777.5588235296
744322.0,-1095.4810126582279,749714.0,32163.61386138614,749714.0,2274820.881188119,749714.0,2545243.425742574,749701.0,27904.425742574258,749701.0,2534105.376237624,749701.0,2539824.5346534653
744400.0,-1076.5443037974683,749814.0,32139.41584158416,749814.0,2274808.00990099,749814.0,2545201.871287129,749801.0,27904.254901960783,749801.0,2534114.3725490198,749801.0,2539875.254901961
744478.0,-1044.6708860759493,749914.0,32099.41584158416,749914.0,2274796.920792079,749914.0,2545168.900990099,749901.0,27918.980392156864,749901.0,2534127.9803921566,749901.0,2539920.529411765
744556.0,-1013.379746835443,750014.0,32057.356435643564,750014.0,2274785.9702970297,750014.0,2545133.2277227724,750001.0,27930.941176470587,750001.0,2534132.294117647,750001.0,2539951.705882353
744634.0,-977.6075949367089,750114.0,32007.69306930693,750114.0,2274769.0594059406,750114.0,2545094.0198019804,750101.0,27934.13725490196,750101.0,2534132.9803921566,750101.0,2539934.705882353
744712.0,-932.4683544303798,750214.0,31960.823529411766,750214.0,2274762.411764706,750214.0,2545058.470588235,750201.0,27944.333333333332,750201.0,2534100.862745098,750201.0,2539842.6274509802
744790.0,-870.9873417721519,750314.0,31922.29702970297,750314.0,2274753.792079208,750314.0,2545027.0495049506,750301.0,27949.861386138615,750301.0,2534009.4455445544,750301.0,2539615.584158416
744868.0,-786.65,750414.0,31898.49504950495,750414.0,2274737.673267327,750414.0,2545008.198019802,750401.0,27946.960784313724,750401.0,2533867.18627451,750401.0,2539212.8333333335
744946.0,-691.9620253164557,750514.0,31857.069306930694,750514.0,2274721.306930693,750514.0,2544985.297029703,750501.0,27926.0,750501.0,2533663.5,750501.0,2538648.5
745024.0,-603.4050632911392,750614.0,31813.68316831683,750614.0,2274706.1386138615,750614.0,2544947.2574257427,750601.0,27874.29411764706,750601.0,2533415.137254902,750601.0,2538005.862745098
745102.0,-552.873417721519,750714.0,31787.881188118812,750714.0,2274714.7623762377,750714.0,2544937.673267327,750701.0,27798.99019607843,750701.0,2533186.382352941,750701.0,2537426.774509804
745180.0,-551.3924050632911,750814.0,31769.465346534653,750814.0,2274693.376237624,750814.0,2544922.623762376,750801.0,27702.470588235294,750801.0,2533013.588235294,750801.0,2536997.5588235296
745258.0,-577.3164556962025,750914.0,31738.673267326732,750914.0,2274699.2376237623,750914.0,2544908.4851485146,750901.0,27594.59405940594,750901.0,2532894.9603960398,750901.0,2536695.4554455443
745336.0,-628.7848101265823,751014.0,31717.50495049505,751014.0,2274680.504950495,751014.0,2544889.5346534653,751001.0,27488.352941176472,751001.0,2532821.9411764704,751001.0,2536475.411764706
745414.0,-686.506329113924,751114.0,31706.0,751114.0,2274669.1666666665,751114.0,2544887.6666666665,751101.0,27385.607843137255,751101.0,2532771.3529411764,751101.0,2536333.6470588236
745492.0,-722.0759493670886,751214.0,31701.09900990099,751214.0,2274670.7425742573,751214.0,2544865.2574257427,751201.0,27291.333333333332,751201.0,2532733.9411764704,751201.0,2536246.7647058824
745570.0,-742.8860759493671,751314.0,31673.41584158416,751314.0,2274672.504950495,751314.0,2544859.336633663,751301.0,27218.58823529412,751301.0,2532713.8235294116,751301.0,2536187.3529411764
745648.0,-756.125,751414.0,31673.68316831683,751414.0,2274654.168316832,751414.0,2544848.2277227724,751401.0,27169.666666666668,751401.0,2532705.6666666665,751401.0,2536149.6666666665
745726.0,-772.5949367088608,751514.0,31656.811881188118,751514.0,2274636.5445544557,751514.0,2544843.0,751501.0,27135.079207920793,751501.0,2532707.6534653464,751501.0,2536174.306930693
745804.0,-782.9240506329114,751614.0,31648.653465346535,751614.0,2274647.673267327,751614.0,2544842.128712871,751601.0,27114.049019607843,751601.0,2532726.254901961,751601.0,2536216.9803921566
745882.0,-749.506329113924,751714.0,31652.91089108911,751714.0,2274645.594059406,751714.0,2544833.910891089,751701.0,27103.29411764706,751701.0,2532722.9215686275,751701.0,2536265.774509804
745960.0,-677.8101265822785,751814.0,31642.470588235294,751814.0,2274650.294117647,751814.0,2544823.294117647,751801.0,27099.529411764706,751801.0,2532702.4411764704,751801.0,2536328.6470588236
746038.0,-596.0506329113924,751914.0,31637.62376237624,751914.0,2274642.4455445544,751914.0,2544816.623762376,751901.0,27106.63725490196,751901.0,2532740.18627451,751901.0,2536406.343137255
746116.0,-548.9873417721519,752014.0,31645.346534653465,752014.0,2274635.6534653464,752014.0,2544825.7722772276,752001.0,27119.49019607843,752001.0,2532763.9803921566,752001.0,2536495.6078431373
746194.0,-567.4556962025316,752114.0,31635.445544554455,752114.0,2274646.3960396037,752114.0,2544839.2376237623,752101.0,27111.90099009901,752101.0,2532814.287128713,752101.0,2536608.207920792
746272.0,-615.3,752214.0,31644.712871287127,752214.0,2274653.881188119,752214.0,2544862.089108911,752201.0,27144.745098039217,752201.0,2532834.568627451,752201.0,2536714.4901960786
746350.0,-637.5949367088608,752314.0,31662.356435643564,752314.0,2274651.0594059406,752314.0,2544840.891089109,752301.0,27157.058823529413,752301.0,2532891.529411765,752301.0,2536837.882352941
746428.0,-600.5316455696202,752414.0,31674.079207920793,752414.0,2274653.336633663,752414.0,2544869.9801980196,752401.0,27164.980392156864,752401.0,2532942.745098039,752401.0,2536945.137254902
746506.0,-538.9367088607595,752514.0,31678.079207920793,752514.0,2274669.881188119,752514.0,2544869.198019802,752501.0,27185.666666666668,752501.0,2532987.3725490198,752501.0,2537064.882352941
746584.0,-528.0886075949367,752614.0,31686.0,752614.0,2274658.0,752614.0,2544889.0,752601.0,27215.70588235294,752601.0,2533044.705882353,752601.0,2537188.6470588236
746662.0,-540.3164556962025,752714.0,31701.686274509804,752714.0,2274658.0,752714.0,2544886.0588235296,752701.0,27222.38613861386,752701.0,2533085.8415841586,752701.0,2537336.6435643565
746740.0,-527.0253164556962,752814.0,31715.58415841584,752814.0,2274666.7326732674,752814.0,2544890.8514851485,752801.0,27236.764705882353,752801.0,2533143.5,752801.0,2537493.8235294116
746818.0,-474.8,752914.0,31713.118811881188,752914.0,2274656.4356435644,752914.0,2544898.6831683167,752901.0,27256.99019607843,752901.0,2533194.0490196077,752901.0,2537657.843137255
746896.0,-426.17721518987344,753014.0,31725.356435643564,753014.0,2274660.7524752477,753014.0,2544898.0495049506,753001.0,27285.42156862745,753001.0,2533252.3333333335,753001.0,2537811.568627451
746974.0,-430.62025316455697,753114.0,31722.237623762376,753114.0,2274666.6435643565,753114.0,2544887.6534653464,753101.0,27313.235294117647,753101.0,2533318.294117647,753101.0,2537943.9411764704
747052.0,-446.873417721519,753214.0,31728.51485148515,753214.0,2274662.3465346536,753214.0,2544884.207920792,753201.0,27321.147058823528,753201.0,2533361.401960784,753201.0,2538107.8921568627
747130.0,-431.65822784810126,753314.0,31719.882352941175,753314.0,2274670.205882353,753314.0,2544904.970588235,753301.0,27335.852941176472,753301.0,2533401.598039216,753301.0,2538197.1078431373
747208.0,-402.5189873417722,753414.0,31721.70297029703,753414.0,2274668.297029703,753414.0,2544896.1881188117,753401.0,27351.529411764706,753401.0,2533467.029411765,753401.0,2538258.1764705884
747286.0,-325.65822784810126,753514.0,31732.69306930693,753514.0,2274666.217821782,753514.0,2544903.910891089,753501.0,27361.50980392157,753501.0,2533498.4803921566,753501.0,2538339.882352941
747364.0,-153.53164556962025,753614.0,31721.663366336634,753614.0,2274653.663366337,753614.0,2544903.2376237623,753601.0,27386.455445544554,753601.0,2533525.3960396037,753601.0,2538407.0198019804
747442.0,145.975,753714.0,31733.069306930694,753714.0,2274662.4554455443,753714.0,2544893.415841584,753701.0,27384.313725490196,753701.0,2533550.9607843137,753701.0,2538480.117647059
747520.0,571.873417721519,753814.0,31738.445544554455,753814.0,2274652.801980198,753814.0,2544891.1386138615,753801.0,27396.62745098039,753801.0,2533568.3333333335,753801.0,2538504.9411764704
747598.0,1032.379746835443,753914.0,31734.742574257427,753914.0,2274662.0693069305,753914.0,2544894.405940594,753901.0,27413.882352941175,753901.0,2533557.6470588236,753901.0,2538512.294117647
747676.0,1382.8481012658228,754014.0,31730.666666666668,754014.0,2274650.6666666665,754014.0,2544897.5,754001.0,27420.313725490196,754001.0,2533530.9803921566,754001.0,2538491.431372549
747754.0,1531.2784810126582,754114.0,31739.861386138615,754114.0,2274652.108910891,754114.0,2544900.4653465347,754101.0,27442.92156862745,754101.0,2533526.156862745,754101.0,2538431.5098039214
747832.0,1540.5949367088608,754214.0,31749.30693069307,754214.0,2274661.9306930695,754214.0,2544914.801980198,754201.0,27440.346534653465,754201.0,2533500.217821782,754201.0,2538354.4653465347
747910.0,1431.0,754314.0,31760.62376237624,754314.0,2274680.0396039602,754314.0,2544931.6336633665,754301.0,27438.186274509804,754301.0,2533457.568627451,754301.0,2538250.6764705884
747988.0,1104.1898734177216,754414.0,31763.0,754414.0,2274667.3663366335,754414.0,2544929.4554455443,754401.0,27458.647058823528,754401.0,2533413.2647058824,754401.0,2538146.617647059
748066.0,631.2625,754514.0,31766.91089108911,754514.0,2274664.5643564356,754514.0,2544929.5643564356,754501.0,27481.813725490196,754501.0,2533387.7352941176,754501.0,2538042.1274509802
748144.0,238.0,754614.0,31775.72277227723,754614.0,2274663.4554455443,754614.0,2544921.504950495,754601.0,27480.960784313724,754601.0,2533352.8039215687,754601.0,2537960.6274509802
748222.0,63.443037974683534,754714.0,31773.470588235294,754714.0,2274683.382352941,754714.0,2544916.7352941176,754701.0,27467.235294117647,754701.0,2533332.705882353,754701.0,2537884.6470588236
748300.0,13.265822784810126,754814.0,31787.59405940594,754814.0,2274683.3168316833,754814.0,2544919.712871287,754801.0,27460.852941176472,754801.0,2533311.8235294116,754801.0,2537868.294117647
748378.0,-128.53164556962025,754914.0,31795.19801980198,754914.0,2274683.198019802,754914.0,2544944.4455445544,754901.0,27462.811881188118,754901.0,2533304.297029703,754901.0,2537859.4554455443
748456.0,-366.6835443037975,755014.0,31801.059405940596,755014.0,2274673.1584158414,755014.0,2544945.7722772276,755001.0,27449.58823529412,755001.0,2533304.0,755001.0,2537869.411764706
748534.0,-477.0632911392405,755114.0,31817.257425742573,755114.0,2274687.5346534653,755114.0,2544960.8217821782,755101.0,27441.0,755101.0,2533308.0,755101.0,2537890.6666666665
748612.0,-401.53164556962025,755214.0,31825.10891089109,755214.0,2274685.1584158414,755214.0,2544990.495049505,755201.0,27446.470588235294,755201.0,2533319.705882353,755201.0,2537902.529411765
748690.0,-366.9,755314.0,31827.38613861386,755314.0,2274692.782178218,755314.0,2544990.297029703,755301.0,27448.117647058825,755301.0,2533331.274509804,755301.0,2537950.1764705884
748768.0,-327.9113924050633,755414.0,31845.94,755414.0,2274677.3,755414.0,2545001.87,755401.0,27440.92156862745,755401.0,2533351.411764706,755401.0,2537984.901960784
748846.0,-35.493670886075904,755514.0,31847.97087378641,755514.0,2274686.7572815535,755514.0,2545017.708737864,755501.0,27459.8,755501.0,2533369.8,755501.0,2538028.4
748924.0,263.36708860759495,755614.0,31866.564356435643,755614.0,2274694.693069307,755614.0,2545017.425742574,755601.0,27481.990291262136,755601.0,2533385.485436893,755601.0,2538092.4466019417
749002.0,-154.69620253164555,755714.0,31878.0,755714.0,2274703.6534653464,755714.0,2545025.297029703,755701.0,27483.01,755701.0,2533402.12,755701.0,2538149.07
749080.0,-1420.8227848101264,755814.0,31886.237623762376,755814.0,2274703.297029703,755814.0,2545041.1386138615,755801.0,27483.99,755801.0,2533428.38,755801.0,2538205.77
749158.0,-1095.6582278481012,755914.0,31902.851485148516,755914.0,2274708.7326732674,755914.0,2545051.99009901,755901.0,27506.66,755901.0,2533476.36,755901.0,2538326.44
749236.0,4176.291139240506,756014.0,31917.366336633662,756014.0,2274712.7722772276,756014.0,2545055.613861386,756001.0,27520.56730769231,756001.0,2533492.701923077,756001.0,2538374.9903846155
749314.0,12833.13924050633,756114.0,31938.91089108911,756114.0,2274725.287128713,756114.0,2545069.891089109,756101.0,27530.79207920792,756101.0,2533519.00990099,756101.0,2538438.8118811883
749392.0,17816.775,756214.0,31952.352941176472,756214.0,2274733.411764706,756214.0,2545080.1764705884,756201.0,27538.470588235294,756201.0,2533551.529411765,756201.0,2538502.117647059
749470.0,14603.12658227848,756314.0,31961.465346534653,756314.0,2274729.5544554456,756314.0,2545101.673267327,756301.0,27543.960784313724,756301.0,2533575.7647058824,756301.0,2538562.1764705884
749548.0,6267.860759493671,756414.0,31965.871287128713,756414.0,2274735.4653465347,756414.0,2545115.871287129,756401.0,27551.76,756401.0,2533591.92,756401.0,2538622.16
749626.0,-159.81012658227883,756514.0,31980.68,756514.0,2274742.56,756514.0,2545123.96,756501.0,27557.384615384617,756501.0,2533619.769230769,756501.0,2538682.5
749704.0,-1643.6835443037974,756614.0,31988.607843137255,756614.0,2274746.294117647,756614.0,2545141.431372549,756601.0,27569.450980392157,756601.0,2533645.9607843137,756601.0,2538764.8039215687
749782.0,-793.5822784810127,756714.0,31994.89108910891,756714.0,2274752.207920792,756714.0,2545155.613861386,756701.0,27581.752475247526,756701.0,2533670.0693069305,756701.0,2538843.7326732674
749860.0,-784.506329113924,756814.0,32013.20792079208,756814.0,2274758.1485148515,756814.0,2545166.00990099,756801.0,27583.36274509804,756801.0,2533702.8235294116,756801.0,2538913.9607843137
749938.0,-1551.26582278481,756914.0,32022.0,756914.0,2274764.12,756914.0,2545177.76,756901.0,27587.43137254902,756901.0,2533708.6078431373,756901.0,2538962.588235294
750016.0,-1799.0506329113923,757014.0,32032.09708737864,757014.0,2274764.475728155,757014.0,2545187.5339805824,757001.0,27596.97,757001.0,2533742.51,757001.0,2539028.4
750094.0,-1584.873417721519,757114.0,32048.37,757114.0,2274769.35,757114.0,2545203.25,757101.0,27611.56730769231,757101.0,2533773.048076923,757101.0,2539098.5
750172.0,-1421.4556962025317,757214.0,32068.450980392157,757214.0,2274780.362745098,757214.0,2545226.088235294,757201.0,27626.303921568626,757201.0,2533780.6666666665,757201.0,2539151.0588235296
750250.0,-1271.15,757314.0,32079.71,757314.0,2274779.77,757314.0,2545238.41,757301.0,27624.752475247526,757301.0,2533807.405940594,757301.0,2539207.900990099
750328.0,-1050.5443037974683,757414.0,32097.656862745098,757414.0,2274786.9803921566,757414.0,2545247.3725490198,757401.0,27647.274509803923,757401.0,2533820.3725490198,757401.0,2539264.862745098
750406.0,-824.4303797468355,757514.0,32122.55,757514.0,2274799.65,757514.0,2545255.55,757501.0,27653.823529411766,757501.0,2533850.0588235296,757501.0,2539327.7647058824
750484.0,-619.1392405063291,757614.0,32139.647058823528,757614.0,2274799.7647058824,757614.0,2545267.3529411764,757601.0,27667.960784313724,757601.0,2533884.705882353,757601.0,2539367.4509803923
750562.0,-442.4810126582278,757714.0,32154.336633663366,757714.0,2274802.8514851485,757714.0,2545285.5544554456,757701.0,27682.07843137255,757701.0,2533885.098039216,757701.0,2539428.6274509802
750640.0,-301.1898734177215,757814.0,32173.940594059404,757814.0,2274805.663366337,757814.0,2545290.663366337,757801.0,27669.176470588234,757801.0,2533909.882352941,757801.0,2539473.529411765
750718.0,-190.1139240506329,757914.0,32228.86274509804,757914.0,2274814.431372549,757914.0,2545296.2156862747,757901.0,27686.059405940596,757901.0,2533931.4851485146,757901.0,2539526.3960396037
750796.0,-112.62025316455697,758014.0,32251.47524752475,758014.0,2274820.1386138615,758014.0,2545301.7722772276,758001.0,27696.852941176472,758001.0,2533952.205882353,758001.0,2539581.294117647
750874.0,-26.734177215189874,758114.0,32258.128712871287,758114.0,2274818.1386138615,758114.0,2545298.108910891,758101.0,27697.274509803923,758101.0,2533967.8039215687,758101.0,2539649.9215686275
750952.0,119.39240506329114,758214.0,32264.029702970296,758214.0,2274826.4653465347,758214.0,2545294.0297029703,758201.0,27706.86274509804,758201.0,2533989.6960784313,758201.0,2539715.205882353
751030.0,298.30379746835445,758314.0,32259.59405940594,758314.0,2274825.4356435644,758314.0,2545301.712871287,758301.0,27714.79411764706,758301.0,2534011.7352941176,758301.0,2539754.1470588236
751108.0,453.675,758414.0,32225.831683168315,758414.0,2274816.2277227724,758414.0,2545286.0198019804,758401.0,27724.10891089109,758401.0,2534010.871287129,758401.0,2539799.079207921
751186.0,558.1645569620254,758514.0,32183.158415841583,758514.0,2274803.9306930695,758514.0,2545245.920792079,758501.0,27739.41176470588,758501.0,2534038.529411765,758501.0,2539830.294117647
751264.0,651.620253164557,758614.0,32136.89108910891,758614.0,2274783.1386138615,758614.0,2545213.00990099,758601.0,27746.196078431374,758601.0,2534078.6078431373,758601.0,2539884.4901960786
751342.0,799.1139240506329,758714.0,32099.882352941175,758714.0,2274769.9411764704,758714.0,2545168.901960784,758701.0,27751.156862745098,758701.0,2534068.9607843137,758701.0,2539920.745098039
751420.0,974.0379746835443,758814.0,32056.52475247525,758814.0,2274765.168316832,758814.0,2545129.099009901,758801.0,27759.0,758801.0,2534067.0,758801.0,2539908.0
751498.0,1140.1898734177216,758914.0,32014.366336633662,758914.0,2274746.128712871,758914.0,2545072.8118811883,758901.0,27756.058823529413,758901.0,2534042.4901960786,758901.0,2539805.0588235296
751576.0,1296.5316455696202,759014.0,31964.70297029703,759014.0,2274735.673267327,759014.0,2545049.168316832,759001.0,27775.21568627451,759001.0,2533957.4509803923,759001.0,2539584.901960784
751654.0,1429.8227848101267,759114.0,31910.049504950493,759114.0,2274721.118811881,759114.0,2545034.9702970297,759101.0,27773.148514851484,759101.0,2533804.7722772276,759101.0,2539172.99009901
751732.0,1543.2784810126582,759214.0,31877.871287128713,759214.0,2274699.079207921,759214.0,2544992.217821782,759201.0,27742.264705882353,759201.0,2533578.1274509802,759201.0,2538578.274509804
751810.0,1644.8987341772151,759314.0,31834.30693069307,759314.0,2274683.9801980196,759314.0,2544959.5445544557,759301.0,27701.70588235294,759301.0,2533328.588235294,759301.0,2537896.8529411764
751888.0,1759.6875,759414.0,31808.920792079207,759414.0,2274681.207920792,759414.0,2544950.0396039602,759401.0,27621.274509803923,759401.0,2533111.5098039214,759401.0,2537320.225490196
751966.0,1892.7721518987341,759514.0,31780.039603960395,759514.0,2274655.0495049506,759514.0,2544963.0,759501.0,27519.50980392157,759501.0,2532931.81372549,759501.0,2536902.8725490198
752044.0,1975.0,759614.0,31763.029702970296,759614.0,2274662.871287129,759614.0,2544958.425742574,759601.0,27410.38613861386,759601.0,2532808.217821782,759601.0,2536624.4554455443
752122.0,1920.6455696202531,759714.0,31733.425742574258,759714.0,2274658.9306930695,759714.0,2544942.0,759701.0,27284.549019607843,759701.0,2532735.5098039214,759701.0,2536422.745098039
752200.0,1637.126582278481,759814.0,31711.882352941175,759814.0,2274633.7647058824,759814.0,2544938.470588235,759801.0,27180.823529411766,759801.0,2532673.9411764704,759801.0,2536295.6470588236
752278.0,1126.3037974683543,759914.0,31690.72277227723,759914.0,2274639.7524752477,759914.0,2544918.831683168,759901.0,27105.117647058825,759901.0,2532645.31372549,759901.0,2536217.117647059
752356.0,526.3037974683544,760014.0,31671.168316831685,760014.0,2274632.6534653464,760014.0,2544888.9405940594,760001.0,27038.450980392157,760001.0,2532618.254901961,760001.0,2536177.117647059
752434.0,-34.0506329113924,760114.0,31670.41584158416,760114.0,2274622.5148514854,760114.0,2544856.306930693,760101.0,26996.970297029704,760101.0,2532608.910891089,760101.0,2536167.6831683167
752512.0,-474.9,760214.0,31659.920792079207,760214.0,2274605.0396039602,760214.0,2544843.0396039602,760201.0,26958.803921568626,760201.0,2532622.343137255,760201.0,2536191.156862745
752590.0,-804.5316455696202,760314.0,31645.920792079207,760314.0,2274605.594059406,760314.0,2544847.0594059406,760301.0,26935.764705882353,760301.0,2532659.3529411764,760301.0,2536252.6764705884
752668.0,-1065.392405063291,760414.0,31633.0,760414.0,2274573.1584158414,760414.0,2544834.7425742573,760401.0,26933.147058823528,760401.0,2532670.2843137253,760401.0,2536324.9607843137
752746.0,-1217.3417721518988,760514.0,31631.69306930693,760514.0,2274579.099009901,760514.0,2544832.881188119,760501.0,26940.264705882353,760501.0,2532711.7647058824,760501.0,2536407.254901961
752824.0,-1267.5443037974683,760614.0,31622.0,760614.0,2274567.7227722774,760614.0,2544831.0198019804,760601.0,26943.0,760601.0,2532752.5445544557,760601.0,2536499.584158416
752902.0,-1262.4810126582279,760714.0,31622.098039215685,760714.0,2274588.9215686275,760714.0,2544824.274509804,760701.0,26951.666666666668,760701.0,2532793.0,760701.0,2536606.0
752980.0,-1247.759493670886,760814.0,31623.712871287127,760814.0,2274578.7623762377,760814.0,2544837.7425742573,760801.0,26976.058823529413,760801.0,2532823.529411765,760801.0,2536724.882352941
753058.0,-1231.4303797468353,760914.0,31632.90099009901,760914.0,2274577.108910891,760914.0,2544857.2376237623,760901.0,26998.92156862745,760901.0,2532865.254901961,760901.0,2536844.294117647
753136.0,-1184.375,761014.0,31645.178217821784,761014.0,2274594.910891089,761014.0,2544847.9504950494,761001.0,27010.86274509804,761001.0,2532922.68627451,761001.0,2536978.9607843137
753214.0,-1128.7848101265822,761114.0,31648.19801980198,761114.0,2274641.594059406,761114.0,2544862.9504950494,761101.0,27030.470588235294,761101.0,2532965.8235294116,761101.0,2537120.529411765
753292.0,-1097.392405063291,761214.0,31653.465346534653,761214.0,2274652.405940594,761214.0,2544862.6336633665,761201.0,27053.48514851485,761201.0,2533020.920792079,761201.0,2537254.2277227724
753370.0,-1073.8354430379748,761314.0,31688.465346534653,761314.0,2274638.2673267326,761314.0,2544877.6435643565,761301.0,27073.735294117647,761301.0,2533072.6764705884,761301.0,2537396.0588235296
753448.0,-1061.0,761414.0,31670.940594059404,761414.0,2274647.4356435644,761414.0,2544866.3564356435,761401.0,27092.70588235294,761401.0,2533128.362745098,761401.0,2537555.1274509802
753526.0,-1048.1645569620252,761514.0,31668.079207920793,761514.0,2274668.6435643565,761514.0,2544883.8415841586,761501.0,27108.274509803923,761501.0,2533191.617647059,761501.0,2537708.343137255
753604.0,-1031.4303797468353,761614.0,31676.0,761614.0,2274633.0,761614.0,2544868.0,761601.0,27130.653465346535,761601.0,2533250.306930693,761601.0,2537848.1881188117
753682.0,-1007.9113924050633,761714.0,31674.039215686276,761714.0,2274628.098039216,761714.0,2544874.862745098,761701.0,27152.37254901961,761701.0,2533313.843137255,761701.0,2537994.9411764704
753760.0,-964.2784810126582,761814.0,31675.940594059404,761814.0,2274627.0297029703,761814.0,2544866.2673267326,761801.0,27167.470588235294,761801.0,2533365.411764706,761801.0,2538132.470588235
753838.0,-952.75,761914.0,31672.158415841583,761914.0,2274616.4356435644,761914.0,2544848.712871287,761901.0,27182.86274509804,761901.0,2533404.3921568627,761901.0,2538247.862745098
753916.0,-993.0126582278481,762014.0,31668.19801980198,762014.0,2274609.3465346536,762014.0,2544842.297029703,762001.0,27193.882352941175,762001.0,2533454.31372549,762001.0,2538361.901960784
753994.0,-1050.9240506329113,762114.0,31652.0099009901,762114.0,2274607.118811881,762114.0,2544850.4653465347,762101.0,27204.40594059406,762101.0,2533489.0,762101.0,2538464.3465346536
754072.0,-1085.3544303797469,762214.0,31656.58415841584,762214.0,2274606.0693069305,762214.0,2544850.0693069305,762201.0,27219.63725490196,762201.0,2533503.068627451,762201.0,2538546.5588235296
754150.0,-1062.7974683544303,762314.0,31662.52475247525,762314.0,2274596.792079208,762314.0,2544833.425742574,762301.0,27236.352941176472,762301.0,2533533.5588235296,762301.0,2538607.2352941176
754228.0,-1024.5696202531647,762414.0,31657.534653465347,762414.0,2274600.5544554456,762414.0,2544827.4455445544,762401.0,27251.166666666668,762401.0,2533544.2843137253,762401.0,2538628.088235294
754306.0,-1018.1518987341772,762514.0,31647.9900990099,762514.0,2274588.386138614,762514.0,2544839.613861386,762501.0,27259.920792079207,762501.0,2533539.4653465347,762501.0,2538621.6831683167
754384.0,-1049.746835443038,762614.0,31648.78217821782,762614.0,2274586.108910891,762614.0,2544847.2376237623,762601.0,27264.0,762601.0,2533540.3333333335,762601.0,2538588.3333333335
754462.0,-1123.4375,762714.0,31650.745098039217,762714.0,2274587.745098039,762714.0,2544850.617647059,762701.0,27283.13725490196,762701.0,2533517.3921568627,762701.0,2538533.862745098
754540.0,-1149.367088607595,762814.0,31663.920792079207,762814.0,2274606.089108911,762814.0,2544853.584158416,762801.0,27288.529411764706,762801.0,2533479.0588235296,762801.0,2538464.3529411764
754618.0,-1080.5822784810127,762914.0,31668.554455445545,762914.0,2274604.7425742573,762914.0,2544858.2574257427,762901.0,27287.196078431374,762901.0,2533438.3921568627,762901.0,2538363.137254902
754696.0,-984.5569620253165,763014.0,31670.68316831683,763014.0,2274604.0,763014.0,2544849.7425742573,763001.0,27293.0,763001.0,2533401.673267327,763001.0,2538243.9702970297
754774.0,-942.253164556962,763114.0,31666.841584158417,763114.0,2274594.0198019804,763114.0,2544844.673267327,763101.0,27291.529411764706,763101.0,2533360.4215686275,763101.0,2538144.18627451
754852.0,-978.5696202531645,763214.0,31666.821782178216,763214.0,2274601.0396039602,763214.0,2544848.108910891,763201.0,27285.196078431374,763201.0,2533327.911764706,763201.0,2538060.9901960786
754930.0,-1007.6835443037975,763314.0,31666.188118811882,763314.0,2274593.2574257427,763314.0,2544866.0495049506,763301.0,27280.852941176472,763301.0,2533300.617647059,763301.0,2537992.8235294116
755008.0,-966.8227848101266,763414.0,31678.831683168315,763414.0,2274599.8217821782,763414.0,2544854.7623762377,763401.0,27286.13725490196,763401.0,2533276.5588235296,763401.0,2537934.362745098
755086.0,-884.493670886076,763514.0,31677.247524752474,763514.0,2274609.128712871,763514.0,2544873.9702970297,763501.0,27281.871287128713,763501.0,2533279.0,763501.0,2537897.128712871
755164.0,-818.8125,763614.0,31682.257425742573,763614.0,2274607.089108911,763614.0,2544870.613861386,763601.0,27299.745098039217,763601.0,2533273.5098039214,763601.0,2537882.3921568627
755242.0,-825.8227848101266,763714.0,31697.128712871287,763714.0,2274607.5445544557,763714.0,2544881.900990099,763701.0,27292.450980392157,763701.0,2533248.8039215687,763701.0,2537907.9215686275
755320.0,-892.632911392405,763814.0,31701.0,763814.0,2274612.529411765,763814.0,2544889.0196078434,763801.0,27291.235294117647,763801.0,2533278.882352941,763801.0,2537923.6470588236
755398.0,-958.4430379746835,763914.0,31705.455445544554,763914.0,2274608.0594059406,763914.0,2544888.5148514854,763901.0,27308.196078431374,763901.0,2533279.274509804,763901.0,2537953.156862745
755476.0,-989.126582278481,764014.0,31707.73267326733,764014.0,2274607.4653465347,764014.0,2544892.3960396037,764001.0,27310.633663366338,764001.0,2533292.2673267326,764001.0,2537975.693069307
755554.0,-961.506329113924,764114.0,31726.79207920792,764114.0,2274604.386138614,764114.0,2544901.2277227724,764101.0,27318.343137254902,764101.0,2533307.8921568627,764101.0,2538011.0490196077
755632.0,-903.3291139240506,764214.0,31724.019801980197,764214.0,2274610.128712871,764214.0,2544913.2673267326,764201.0,27323.58823529412,764201.0,2533320.7352941176,764201.0,2538068.156862745
755710.0,-841.5189873417721,764314.0,31731.950495049507,764314.0,2274612.297029703,764314.0,2544926.1386138615,764301.0,27335.0,764301.0,2533335.7647058824,764301.0,2538111.294117647
755788.0,-781.0632911392405,764414.0,31755.712871287127,764414.0,2274616.1584158414,764414.0,2544932.079207921,764401.0,27335.118811881188,764401.0,2533361.128712871,764401.0,2538154.673267327
755866.0,-737.7721518987341,764514.0,31761.26732673267,764514.0,2274630.297029703,764514.0,2544930.9504950494,764501.0,27347.0,764501.0,2533374.0,764501.0,2538222.0
755944.0,-670.1,764614.0,31777.50495049505,764614.0,2274632.6336633665,764614.0,2544938.7524752477,764601.0,27345.039215686276,764601.0,2533413.2156862747,764601.0,2538262.1960784313
756022.0,-503.72151898734177,764714.0,31784.0099009901,764714.0,2274621.712871287,764714.0,2544946.3168316833,764701.0,27362.29411764706,764701.0,2533423.6078431373,764701.0,2538344.6666666665
756100.0,-206.05063291139243,764814.0,31789.534653465347,764814.0,2274626.1485148515,764814.0,2544963.6831683167,764801.0,27368.647058823528,764801.0,2533450.3529411764,764801.0,2538390.3529411764
756178.0,190.25316455696202,764914.0,31789.138613861385,764914.0,2274627.1386138615,764914.0,2544978.4356435644,764901.0,27384.666666666668,764901.0,2533470.431372549,764901.0,2538460.274509804
756256.0,574.8227848101266,765014.0,31803.941176470587,765014.0,2274651.3529411764,765014.0,2544995.1764705884,765001.0,27371.425742574258,765001.0,2533494.7722772276,765001.0,2538518.831683168
756334.0,839.4303797468355,765114.0,31819.52475247525,765114.0,2274662.089108911,765114.0,2544992.5643564356,765101.0,27407.470588235294,765101.0,2533512.1666666665,765101.0,2538581.9901960786
756412.0,984.7721518987341,765214.0,31838.09900990099,765214.0,2274646.920792079,765214.0,2545002.910891089,765201.0,27414.617647058825,765201.0,2533548.901960784,765201.0,2538645.7156862747
756490.0,1052.6708860759493,765314.0,31850.970297029704,765314.0,2274655.6336633665,765314.0,2545023.504950495,765301.0,27416.70588235294,765301.0,2533568.5,765301.0,2538705.1764705884
756568.0,1001.6582278481012,765414.0,31859.425742574258,765414.0,2274662.910891089,765414.0,2545030.0,765401.0,27425.333333333332,765401.0,2533596.0,765401.0,2538777.3333333335
756646.0,719.4556962025316,765514.0,31884.673267326732,765514.0,2274662.297029703,765514.0,2545033.4455445544,765501.0,27433.574257425742,765501.0,2533612.504950495,765501.0,2538832.7326732674
756724.0,222.875,765614.0,31900.564356435643,765614.0,2274676.415841584,765614.0,2545041.6435643565,765601.0,27453.49019607843,765601.0,2533641.529411765,765601.0,2538902.294117647
756802.0,-259.1518987341772,765714.0,31909.871287128713,765714.0,2274679.900990099,765714.0,2545072.0594059406,765701.0,27466.62745098039,765701.0,2533670.745098039,765701.0,2538967.9803921566
756880.0,-528.7721518987341,765814.0,31916.455445544554,765814.0,2274683.168316832,765814.0,2545086.4653465347,765801.0,27468.235294117647,765801.0,2533709.117647059,765801.0,2539024.8235294116
756958.0,-607.6455696202531,765914.0,31930.823529411766,765914.0,2274693.705882353,765914.0,2545089.470588235,765901.0,27473.960784313724,765901.0,2533738.3725490198,765901.0,2539078.2352941176
757036.0,-679.1645569620254,766014.0,31952.752475247526,766014.0,2274699.0594059406,766014.0,2545107.297029703,766001.0,27486.9900990099,766001.0,2533764.0495049506,766001.0,2539135.2277227724
757114.0,-839.5696202531645,766114.0,31970.59405940594,766114.0,2274697.9702970297,766114.0,2545124.0693069305,766101.0,27496.00980392157,766101.0,2533780.3039215687,766101.0,2539187.5
757192.0,-959.0379746835443,766214.0,31978.51485148515,766214.0,2274699.4554455443,766214.0,2545134.9603960398,766201.0,27502.87254901961,766201.0,2533812.5392156863,766201.0,2539235.411764706
757270.0,-927.367088607595,766314.0,31975.544554455446,766314.0,2274698.663366337,766314.0,2545132.693069307,766301.0,27512.441176470587,766301.0,2533829.7352941176,766301.0,2539305.470588235
757348.0,-889.620253164557,766414.0,31977.326732673268,766414.0,2274694.900990099,766414.0,2545126.9504950494,766401.0,27517.970588235294,766401.0,2533812.294117647,766401.0,2539362.2156862747
757426.0,-903.55,766514.0,31975.41584158416,766514.0,2274697.9306930695,766514.0,2545111.712871287,766501.0,27528.558823529413,766501.0,2533819.843137255,766501.0,2539413.68627451
757504.0,-735.126582278481,766614.0,31942.58415841584,766614.0,2274691.712871287,766614.0,2545072.504950495,766601.0,27538.366336633662,766601.0,2533830.0,766601.0,2539465.1881188117
757582.0,-407.9620253164557,766714.0,31899.861386138615,766714.0,2274672.7524752477,766714.0,2545027.504950495,766701.0,27550.117647058825,766701.0,2533861.0,766701.0,2539521.0784313725
757660.0,-493.60759493670884,766814.0,31860.73267326733,766814.0,2274649.108910891,766814.0,2544982.3960396037,766801.0,27556.0,766801.0,2533881.588235294,766801.0,2539580.882352941
757738.0,-1476.240506329114,766914.0,31813.666666666668,766914.0,2274627.8333333335,766914.0,2544937.6078431373,766901.0,27564.529411764706,766901.0,2533880.862745098,766901.0,2539628.1764705884
757816.0,-2101.481012658228,767014.0,31769.643564356436,767014.0,2274619.217821782,767014.0,2544890.297029703,767001.0,27571.0,767001.0,2533898.117647059,767001.0,2539629.0784313725
757894.0,1076.5443037974683,767114.0,31707.861386138615,767114.0,2274608.7227722774,767114.0,2544847.7227722774,767101.0,27576.881188118812,767101.0,2533885.198019802,767101.0,2539579.6435643565
757972.0,9130.481012658227,767214.0,31648.69306930693,767214.0,2274583.0495049506,767214.0,2544818.574257426,767201.0,27583.039215686276,767201.0,2533817.3529411764,767201.0,2539437.843137255
758050.0,16694.32911392405,767314.0,31599.940594059404,767314.0,2274562.9702970297,767314.0,2544782.8118811883,767301.0,27580.0,767301.0,2533712.5,767301.0,2539134.0
758128.0,16727.07594936709,767414.0,31553.881188118812,767414.0,2274547.2673267326,767414.0,2544737.079207921,767401.0,27570.235294117647,767401.0,2533539.911764706,767401.0,2538652.411764706
758206.0,9012.06329113924,767514.0,31510.31683168317,767514.0,2274540.6534653464,767514.0,2544697.3168316833,767501.0,27537.47524752475,767501.0,2533311.782178218,767501.0,2538045.663366337
758284.0,563.65,767614.0,31473.68316831683,767614.0,2274522.336633663,767614.0,2544662.7623762377,767601.0,27469.56862745098,767601.0,2533082.529411765,767601.0,2537454.274509804
758362.0,-2768.7974683544303,767714.0,31445.881188118812,767714.0,2274507.6831683167,767714.0,2544638.5445544557,767701.0,27367.92156862745,767701.0,2532896.0196078434,767701.0,2536990.470588235
758440.0,-1833.8354430379748,767814.0,31415.79207920792,767814.0,2274503.4851485146,767814.0,2544611.386138614,767801.0,27258.176470588234,767801.0,2532762.7647058824,767801.0,2536658.705882353
758518.0,-1009.7215189873418,767914.0,31390.960396039605,767914.0,2274487.3663366335,767914.0,2544599.663366337,767901.0,27155.62745098039,767901.0,2532657.6666666665,767901.0,2536415.7647058824
758596.0,-1823.746835443038,768014.0,31358.313725490196,768014.0,2274481.745098039,768014.0,2544576.274509804,768001.0,27030.47524752475,768001.0,2532587.1881188117,768001.0,2536221.0594059406
758674.0,-2492.253164556962,768114.0,31339.26732673267,768114.0,2274468.2673267326,768114.0,2544547.6831683167,768101.0,26925.254901960783,768101.0,2532544.3921568627,768101.0,2536083.2843137253
758752.0,-2338.025316455696,768214.0,31326.396039603962,768214.0,2274460.663366337,768214.0,2544531.4455445544,768201.0,26846.57843137255,768201.0,2532517.137254902,768201.0,2535997.9901960786
758830.0,-2148.3037974683543,768314.0,31308.712871287127,768314.0,2274459.6534653464,768314.0,2544519.574257426,768301.0,26779.176470588234,768301.0,2532502.382352941,768301.0,2535974.6764705884
758908.0,-2076.481012658228,768414.0,31285.742574257427,768414.0,2274447.0594059406,768414.0,2544497.9504950494,768401.0,26737.92156862745,768401.0,2532502.343137255,768401.0,2535978.5588235296
758986.0,-1938.6582278481012,768514.0,31278.564356435643,768514.0,2274453.0,768514.0,2544508.8415841586,768501.0,26721.156862745098,768501.0,2532513.1274509802,768501.0,2536004.9215686275
759064.0,-1756.0,768614.0,31258.52475247525,768614.0,2274450.386138614,768614.0,2544479.8118811883,768601.0,26711.352941176472,768601.0,2532529.205882353,768601.0,2536064.3235294116
759142.0,-1608.886075949367,768714.0,31257.225490196077,768714.0,2274440.1960784313,768714.0,2544478.705882353,768701.0,26701.27722772277,768701.0,2532556.9504950494,768701.0,2536140.2772277226
759220.0,-1513.6375,768814.0,31255.29702970297,768814.0,2274431.297029703,768814.0,2544486.5445544557,768801.0,26696.764705882353,768801.0,2532581.1764705884,768801.0,2536233.6470588236
759298.0,-1423.607594936709,768914.0,31246.980198019803,768914.0,2274426.7425742573,768914.0,2544482.1881188117,768901.0,26711.803921568626,768901.0,2532613.156862745,768901.0,2536333.8235294116
759376.0,-1276.620253164557,769014.0,31258.19801980198,769014.0,2274448.118811881,769014.0,2544485.495049505,769001.0,26729.254901960783,769001.0,2532635.5098039214,769001.0,2536412.0588235296
759454.0,-1113.607594936709,769114.0,31269.148514851484,769114.0,2274439.8217821782,769114.0,2544478.4653465347,769101.0,26765.70588235294,769101.0,2532700.294117647,769101.0,2536504.2352941176
759532.0,-993.4556962025316,769214.0,31258.69306930693,769214.0,2274437.3168316833,769214.0,2544480.376237624,769201.0,26798.90099009901,769201.0,2532733.871287129,769201.0,2536624.792079208
759610.0,-878.746835443038,769314.0,31271.366336633662,769314.0,2274430.108910891,769314.0,2544502.3168316833,769301.0,26809.735294117647,769301.0,2532788.205882353,769301.0,2536730.470588235
759688.0,-744.7215189873418,769414.0,31270.673267326732,769414.0,2274436.4455445544,769414.0,2544504.0,769401.0,26816.93137254902,769401.0,2532835.225490196,769401.0,2536844.3529411764
759766.0,-588.379746835443,769514.0,31287.235294117647,769514.0,2274438.725490196,769514.0,2544502.7647058824,769501.0,26839.264705882353,769501.0,2532878.0098039214,769501.0,2536988.7647058824
759844.0,-418.2278481012658,769614.0,31294.52475247525,769614.0,2274438.900990099,769614.0,2544495.4752475247,769601.0,26857.735294117647,769601.0,2532940.588235294,769601.0,2537159.529411765
759922.0,-248.126582278481,769714.0,31289.69306930693,769714.0,2274452.782178218,769714.0,2544500.5247524753,769701.0,26855.274509803923,769701.0,2532992.117647059,769701.0,2537330.774509804
760000.0,-30.683544303797476,769814.0,31278.70297029703,769814.0,2274450.108910891,769814.0,2544512.00990099,769801.0,26859.93137254902,769801.0,2533051.6274509802,769801.0,2537485.3333333335
760078.0,228.32911392405063,769914.0,31276.712871287127,769914.0,2274442.5346534653,769914.0,2544502.910891089,769901.0,26878.445544554455,769901.0,2533123.099009901,769901.0,2537651.0396039602
760156.0,482.4,770014.0,31282.811881188118,770014.0,2274447.3663366335,770014.0,2544502.5544554456,770001.0,26893.29411764706,770001.0,2533160.3333333335,770001.0,2537785.725490196
760234.0,716.8607594936709,770114.0,31268.79207920792,770114.0,2274439.5148514854,770114.0,2544507.405940594,770101.0,26908.0,770101.0,2533227.0,770101.0,2537922.0
760312.0,913.7088607594936,770214.0,31264.752475247526,770214.0,2274433.0594059406,770214.0,2544485.7623762377,770201.0,26932.0,770201.0,2533288.0,770201.0,2538056.0
760390.0,1075.4810126582279,770314.0,31245.441176470587,770314.0,2274434.098039216,770314.0,2544482.3921568627,770301.0,26970.46153846154,770301.0,2533300.5,770301.0,2538155.0384615385
760468.0,1222.0379746835442,770414.0,31254.38613861386,770414.0,2274436.118811881,770414.0,2544489.792079208,770401.0,26963.36,770401.0,2533341.32,770401.0,2538239.64
760546.0,1370.5949367088608,770514.0,31266.58415841584,770514.0,2274439.6831683167,770514.0,2544482.8613861385,770501.0,26983.504854368934,770501.0,2533372.825242718,770501.0,2538328.7475728155
760624.0,1540.1518987341772,770614.0,31246.049504950493,770614.0,2274423.9405940594,770614.0,2544475.871287129,770601.0,26997.09,770601.0,2533370.35,770601.0,2538360.11
760702.0,1671.5189873417721,770714.0,31251.0,770714.0,2274418.0,770714.0,2544463.0,770701.0,27009.16,770701.0,2533389.53,770701.0,2538375.95
760780.0,1672.9746835443038,770814.0,31242.08910891089,770814.0,2274417.00990099,770814.0,2544472.900990099,770801.0,27048.323529411766,770801.0,2533371.7843137253,770801.0,2538326.7156862747
760858.0,1488.113924050633,770914.0,31254.742574257427,770914.0,2274426.801980198,770914.0,2544462.217821782,770901.0,27056.117647058825,770901.0,2533370.0,770901.0,2538266.5588235296
760936.0,1128.1,771014.0,31244.326732673268,771014.0,2274430.881188119,771014.0,2544454.2376237623,771001.0,27046.166666666668,771001.0,2533320.8333333335,771001.0,2538179.5
761014.0,673.1898734177215,771114.0,31256.48514851485,771114.0,2274427.1584158414,771114.0,2544463.6039603963,771101.0,27051.396039603962,771101.0,2533261.693069307,771101.0,2538076.891089109
761092.0,200.73417721518985,771214.0,31236.84,771214.0,2274427.0,771214.0,2544469.76,771201.0,27063.450980392157,771201.0,2533240.5490196077,771201.0,2537977.6078431373
761170.0,-263.65822784810126,771314.0,31245.320388349515,771314.0,2274431.660194175,771314.0,2544450.427184466,771301.0,27060.50980392157,771301.0,2533212.901960784,771301.0,2537881.137254902
761248.0,-676.746835443038,771414.0,31251.52475247525,771414.0,2274432.4603960398,771414.0,2544459.589108911,771401.0,27060.529411764706,771401.0,2533170.8235294116,771401.0,2537804.9411764704
761326.0,-968.8101265822785,771514.0,31257.465346534653,771514.0,2274432.9554455443,771514.0,2544470.9752475247,771501.0,27056.48514851485,771501.0,2533144.9504950494,771501.0,2537752.6336633665
761404.0,-1086.126582278481,771614.0,31247.99,771614.0,2274416.62,771614.0,2544483.83,771601.0,27063.823529411766,771601.0,2533142.9411764704,771601.0,2537716.7352941176
761482.0,-1068.9620253164558,771714.0,31254.13725490196,771714.0,2274431.0588235296,771714.0,2544484.1078431373,771701.0,27058.97,771701.0,2533143.27,771701.0,2537709.46
761560.0,-1035.0886075949368,771814.0,31252.33,771814.0,2274423.21,771814.0,2544481.33,771801.0,27060.91346153846,771801.0,2533140.894230769,771801.0,2537710.0
761638.0,-1038.3417721518988,771914.0,31268.57843137255,771914.0,2274445.5588235296,771914.0,2544493.2156862747,771901.0,27060.24,771901.0,2533140.69,771901.0,2537722.42
761716.0,-1055.506329113924,772014.0,31259.69,772014.0,2274431.6,772014.0,2544495.0,772001.0,27059.0,772001.0,2533152.3883495145,772001.0,2537747.427184466
761794.0,-1045.3544303797469,772114.0,31304.91176470588,772114.0,2274444.3529411764,772114.0,2544500.117647059,772101.0,27071.29411764706,772101.0,2533165.7647058824,772101.0,2537778.3529411764
761872.0,-987.9873417721519,772214.0,31284.1,772214.0,2274447.85,772214.0,2544507.8,772201.0,27083.019607843136,772201.0,2533187.568627451,772201.0,2537816.9803921566
761950.0,-900.6075949367089,772314.0,31313.166666666668,772314.0,2274451.3333333335,772314.0,2544505.6666666665,772301.0,27089.1,772301.0,2533204.2,772301.0,2537865.86
762028.0,-799.5696202531645,772414.0,31300.91,772414.0,2274449.51,772414.0,2544517.45,772401.0,27101.834951456312,772401.0,2533213.4174757283,772401.0,2537923.9223300973
762106.0,-705.5375,772514.0,31325.480392156864,772514.0,2274470.156862745,772514.0,2544522.4411764704,772501.0,27116.519607843136,772501.0,2533237.8235294116,772501.0,2537974.4509803923
762184.0,-627.0,772614.0,31334.40594059406,772614.0,2274462.168316832,772614.0,2544519.792079208,772601.0,27119.764705882353,772601.0,2533266.411764706,772601.0,2538036.588235294
762262.0,-550.2911392405064,772714.0,31369.50980392157,772714.0,2274469.1960784313,772714.0,2544525.274509804,772701.0,27126.62745098039,772701.0,2533293.7156862747,772701.0,2538101.7352941176
762340.0,-496.9746835443038,772814.0,31390.58415841584,772814.0,2274470.4554455443,772814.0,2544516.9603960398,772801.0,27141.79411764706,772801.0,2533327.745098039,772801.0,2538161.774509804
762418.0,-483.0,772914.0,31408.48514851485,772914.0,2274468.4752475247,772914.0,2544539.920792079,772901.0,27150.0,772901.0,2533349.5,772901.0,2538233.5
762496.0,-485.746835443038,773014.0,31405.47524752475,773014.0,2274471.7623762377,773014.0,2544556.2772277226,773001.0,27156.821782178216,773001.0,2533365.613861386,773001.0,2538309.900990099
762574.0,-482.0253164556962,773114.0,31397.80198019802,773114.0,2274487.8514851485,773114.0,2544570.1386138615,773101.0,27165.352941176472,773101.0,2533391.705882353,773101.0,2538373.411764706
762652.0,-445.873417721519,773214.0,31401.861386138615,773214.0,2274495.198019802,773214.0,2544581.326732673,773201.0,27172.960784313724,773201.0,2533411.862745098,773201.0,2538432.2156862747
762730.0,-387.9240506329114,773314.0,31401.831683168315,773314.0,2274496.7227722774,773314.0,2544584.0,773301.0,27184.176470588234,773301.0,2533437.9803921566,773301.0,2538503.0784313725
762808.0,-345.43037974683546,773414.0,31415.970297029704,773414.0,2274492.7227722774,773414.0,2544589.702970297,773401.0,27198.0,773401.0,2533463.8235294116,773401.0,2538574.3529411764
762886.0,-324.69620253164555,773514.0,31441.49019607843,773514.0,2274495.8725490198,773514.0,2544603.137254902,773501.0,27213.098039215685,773501.0,2533471.6666666665,773501.0,2538633.9607843137
762964.0,-322.53164556962025,773614.0,31446.58415841584,773614.0,2274512.3465346536,773614.0,2544610.7326732674,773601.0,27218.366336633662,773601.0,2533501.5643564356,773601.0,2538692.831683168
763042.0,-328.3,773714.0,31459.138613861385,773714.0,2274510.920792079,773714.0,2544634.217821782,773701.0,27219.07843137255,773701.0,2533539.4411764704,773701.0,2538749.9607843137
763120.0,-324.54430379746833,773814.0,31473.960396039605,773814.0,2274513.6336633665,773814.0,2544642.3465346536,773801.0,27232.460784313724,773801.0,2533561.3529411764,773801.0,2538811.2843137253
763198.0,-299.44303797468353,773914.0,31486.49504950495,773914.0,2274530.7227722774,773914.0,2544646.881188119,773901.0,27248.764705882353,773901.0,2533589.529411765,773901.0,2538888.2647058824
763276.0,-245.54430379746836,774014.0,31508.37623762376,774014.0,2274525.7722772276,774014.0,2544668.663366337,774001.0,27265.607843137255,774001.0,2533608.117647059,774001.0,2538940.0098039214
763354.0,-184.0126582278481,774114.0,31526.237623762376,774114.0,2274513.297029703,774114.0,2544725.891089109,774101.0,27268.72277227723,774101.0,2533635.0297029703,774101.0,2539005.623762376
763432.0,-136.84810126582278,774214.0,31534.742574257427,774214.0,2274532.4554455443,774214.0,2544764.8514851485,774201.0,27275.745098039217,774201.0,2533649.725490196,774201.0,2539044.6274509802
763510.0,-119.65822784810126,774314.0,31554.188118811882,774314.0,2274547.2277227724,774314.0,2544789.1881188117,774301.0,27287.333333333332,774301.0,2533660.2156862747,774301.0,2539100.9411764704
763588.0,-134.21518987341773,774414.0,31579.950980392157,774414.0,2274558.7647058824,774414.0,2544800.598039216,774401.0,27298.352941176472,774401.0,2533697.9411764704,774401.0,2539179.529411765
763666.0,-133.873417721519,774514.0,31592.920792079207,774514.0,2274574.1782178218,774514.0,2544805.673267327,774501.0,27297.313725490196,774501.0,2533714.431372549,774501.0,2539226.274509804
763744.0,-108.45569620253164,774614.0,31597.871287128713,774614.0,2274569.663366337,774614.0,2544799.8118811883,774601.0,27318.686274509804,774601.0,2533723.6470588236,774601.0,2539271.3725490198
763822.0,-89.36708860759494,774714.0,31602.821782178216,774714.0,2274551.2772277226,774714.0,2544780.0198019804,774701.0,27336.831683168315,774701.0,2533758.386138614,774701.0,2539329.584158416
763900.0,-76.60759493670886,774814.0,31592.80198019802,774814.0,2274545.7722772276,774814.0,2544758.910891089,774801.0,27319.5,774801.0,2533778.3333333335,774801.0,2539395.3333333335
763978.0,-80.13924050632912,774914.0,31563.396039603962,774914.0,2274536.0198019804,774914.0,2544729.306930693,774901.0,27353.029411764706,774901.0,2533803.6764705884,774901.0,2539463.029411765
764056.0,-75.17721518987342,775014.0,31522.940594059404,775014.0,2274509.425742574,775014.0,2544683.128712871,775001.0,27359.254901960783,775001.0,2533824.4901960786,775001.0,2539504.882352941
764134.0,-17.341772151898734,775114.0,31479.960396039605,775114.0,2274492.376237624,775114.0,2544623.891089109,775101.0,27362.941176470587,775101.0,2533824.9901960786,775101.0,2539556.205882353
764212.0,152.50632911392404,775214.0,31427.049504950493,775214.0,2274466.831683168,775214.0,2544579.613861386,775201.0,27380.147058823528,775201.0,2533855.794117647,775201.0,2539591.1764705884
764290.0,480.55,775314.0,31367.21782178218,775314.0,2274447.0198019804,775314.0,2544528.118811881,775301.0,27392.27722772277,775301.0,2533831.5445544557,775301.0,2539586.0693069305
764368.0,923.3164556962025,775414.0,31303.356435643564,775414.0,2274445.0396039602,775414.0,2544469.702970297,775401.0,27395.235294117647,775401.0,2533806.882352941,775401.0,2539480.117647059
764446.0,1389.7215189873418,775514.0,31245.382352941175,775514.0,2274435.2352941176,775514.0,2544419.6960784313,775501.0,27383.196078431374,775501.0,2533719.862745098,775501.0,2539257.3333333335
764524.0,1728.6835443037974,775614.0,31191.287128712873,775614.0,2274416.4356435644,775614.0,2544370.782178218,775601.0,27387.37254901961,775601.0,2533589.470588235,775601.0,2538837.137254902
764602.0,1900.4050632911392,775714.0,31130.950495049507,775714.0,2274413.8415841586,775714.0,2544333.2376237623,775701.0,27356.0,775701.0,2533363.0,775701.0,2538244.0
764680.0,1992.620253164557,775814.0,31077.38613861386,775814.0,2274421.3168316833,775814.0,2544292.3960396037,775801.0,27320.70588235294,775801.0,2533083.588235294,775801.0,2537564.588235294
764758.0,1963.0,775914.0,31033.62376237624,775914.0,2274408.6435643565,775914.0,2544253.623762376,775901.0,27224.91089108911,775901.0,2532875.207920792,775901.0,2537009.574257426
764836.0,1681.607594936709,776014.0,31002.653465346535,776014.0,2274400.0198019804,776014.0,2544220.099009901,776001.0,27114.539215686276,776001.0,2532719.6960784313,776001.0,2536610.705882353
764914.0,1188.7088607594937,776114.0,30971.445544554455,776114.0,2274398.910891089,776114.0,2544188.7722772276,776101.0,27003.754901960783,776101.0,2532603.9607843137,776101.0,2536320.901960784
764992.0,714.2278481012659,776214.0,30941.257425742573,776214.0,2274386.7623762377,776214.0,2544163.2574257427,776201.0,26887.5,776201.0,2532518.5,776201.0,2536140.529411765
765070.0,475.746835443038,776314.0,30910.366336633662,776314.0,2274354.6831683167,776314.0,2544139.099009901,776301.0,26777.07843137255,776301.0,2532468.1764705884,776301.0,2535993.8529411764
765148.0,404.9873417721519,776414.0,30884.61386138614,776414.0,2274338.5247524753,776414.0,2544118.207920792,776401.0,26670.712871287127,776401.0,2532431.2772277226,776401.0,2535888.118811881
765226.0,274.40506329113924,776514.0,30870.58823529412,776514.0,2274324.431372549,776514.0,2544095.588235294,776501.0,26602.78431372549,776501.0,2532396.8039215687,776501.0,2535838.901960784
765304.0,44.354430379746844,776614.0,30837.663366336634,776614.0,2274307.504950495,776614.0,2544072.287128713,776601.0,26554.37254901961,776601.0,2532381.882352941,776601.0,2535825.411764706
765382.0,-141.1875,776714.0,30814.49504950495,776714.0,2274297.108910891,776714.0,2544060.6039603963,776701.0,26509.117647058825,776701.0,2532381.6470588236,776701.0,2535843.7647058824
765460.0,-143.65822784810126,776814.0,30803.643564356436,776814.0,2274289.702970297,776814.0,2544042.00990099,776801.0,26492.156862745098,776801.0,2532380.3921568627,776801.0,2535884.1764705884
765538.0,-112.59493670886076,776914.0,30793.445544554455,776914.0,2274297.6534653464,776914.0,2544038.7722772276,776901.0,26475.882352941175,776901.0,2532410.588235294,776901.0,2535936.9215686275
765616.0,-181.78481012658227,777014.0,30779.465346534653,777014.0,2274288.2277227724,777014.0,2544022.9306930695,777001.0,26476.58823529412,777001.0,2532462.588235294,777001.0,2536019.3529411764
765694.0,-73.0253164556962,777114.0,30771.264705882353,777114.0,2274271.0784313725,777114.0,2544004.401960784,777101.0,26475.764705882353,777101.0,2532481.2156862747,777101.0,2536102.843137255
765772.0,213.46835443037975,777214.0,30761.554455445545,777214.0,2274287.00990099,777214.0,2543991.0198019804,777201.0,26488.920792079207,777201.0,2532516.702970297,777201.0,2536193.6039603963
765850.0,139.56962025316454,777314.0,30757.9900990099,777314.0,2274290.891089109,777314.0,2544002.9405940594,777301.0,26502.58823529412,777301.0,2532544.029411765,777301.0,2536291.2843137253
765928.0,-899.7974683544303,777414.0,30772.603960396038,777414.0,2274289.0693069305,777414.0,2544009.336633663,777401.0,26522.00980392157,777401.0,2532592.4607843137,777401.0,2536388.911764706
766006.0,-1766.5822784810125,777514.0,30777.772277227723,777514.0,2274293.5445544557,777514.0,2544013.7722772276,777501.0,26542.529411764706,777501.0,2532625.882352941,777501.0,2536504.2352941176
766084.0,1166.9620253164558,777614.0,30777.772277227723,777614.0,2274298.0,777614.0,2544019.712871287,777601.0,26557.539215686276,777601.0,2532668.470588235,777601.0,2536636.3039215687
766162.0,9162.759493670887,777714.0,30774.564356435643,777714.0,2274299.1881188117,777714.0,2544031.9504950494,777701.0,26574.107843137255,777701.0,2532711.2156862747,777701.0,2536745.1764705884
766240.0,16907.4875,777814.0,30784.633663366338,777814.0,2274297.99009901,777814.0,2544036.8217821782,777801.0,26594.58823529412,777801.0,2532761.4411764704,777801.0,2536858.4411764704
766318.0,17581.696202531646,777914.0,30786.039215686276,777914.0,2274280.7843137253,777914.0,2544045.3725490198,777901.0,26614.47524752475,777901.0,2532814.198019802,777901.0,2536988.5346534653
766396.0,10465.240506329115,778014.0,30807.80198019802,778014.0,2274283.7623762377,778014.0,2544049.6435643565,778001.0,26622.58823529412,778001.0,2532868.705882353,778001.0,2537131.411764706
766474.0,2021.1265822784817,778114.0,30804.930693069306,778114.0,2274299.5643564356,778114.0,2544034.0693069305,778101.0,26637.78431372549,778101.0,2532925.411764706,778101.0,2537271.901960784
766552.0,-1883.73417721519,778214.0,30798.673267326732,778214.0,2274300.3960396037,778214.0,2544039.792079208,778201.0,26667.666666666668,778201.0,2532984.0392156863,778201.0,2537414.4509803923
766630.0,-1564.2278481012659,778314.0,30808.47524752475,778314.0,2274295.3564356435,778314.0,2544027.3564356435,778301.0,26692.0,778301.0,2533036.3529411764,778301.0,2537560.294117647
766708.0,-839.8481012658228,778414.0,30794.257425742573,778414.0,2274302.881188119,778414.0,2544037.891089109,778401.0,26712.356435643564,778401.0,2533087.8613861385,778401.0,2537700.0495049506
766786.0,-1414.6708860759495,778514.0,30786.336633663366,778514.0,2274283.9702970297,778514.0,2544028.4356435644,778501.0,26732.0,778501.0,2533136.5,778501.0,2537818.5
766864.0,-2099.73417721519,778614.0,30792.89108910891,778614.0,2274300.0297029703,778614.0,2544009.2475247523,778601.0,26742.401960784315,778601.0,2533170.931372549,778601.0,2537918.5196078434
766942.0,-2139.6455696202534,778714.0,30786.382352941175,778714.0,2274294.637254902,778714.0,2544016.8725490198,778701.0,26758.823529411766,778701.0,2533208.117647059,778701.0,2538015.2352941176
767020.0,-2003.3164556962024,778814.0,30789.0,778814.0,2274298.3465346536,778814.0,2544015.0198019804,778801.0,26776.323529411766,778801.0,2533237.529411765,778801.0,2538095.2352941176
767098.0,-1937.0632911392406,778914.0,30788.10891089109,778914.0,2274293.792079208,778914.0,2544007.99009901,778901.0,26783.901960784315,778901.0,2533253.382352941,778901.0,2538148.705882353
767176.0,-1864.1772151898733,779014.0,30780.980198019803,779014.0,2274300.198019802,779014.0,2544015.9306930695,779001.0,26800.441176470587,779001.0,2533260.5588235296,779001.0,2538181.0392156863
767254.0,-1762.875,779114.0,30790.920792079207,779114.0,2274292.2376237623,779114.0,2544006.108910891,779101.0,26817.633663366338,779101.0,2533251.8613861385,779101.0,2538191.0693069305
767332.0,-1622.6455696202531,779214.0,30790.970297029704,779214.0,2274295.0,779214.0,2544019.415841584,779201.0,26827.607843137255,779201.0,2533249.8039215687,779201.0,2538165.274509804
767410.0,-1453.9620253164558,779314.0,30802.752475247526,779314.0,2274295.0,779314.0,2544024.5247524753,779301.0,26833.41176470588,779301.0,2533233.529411765,779301.0,2538107.9411764704
767488.0,-1297.26582278481,779414.0,30783.49504950495,779414.0,2274294.702970297,779414.0,2544016.9504950494,779401.0,26838.333333333332,779401.0,2533217.3333333335,779401.0,2538040.3333333335
767566.0,-1180.9113924050632,779514.0,30793.435643564357,779514.0,2274289.831683168,779514.0,2544016.7524752477,779501.0,26848.960784313724,779501.0,2533183.6470588236,779501.0,2537939.5490196077
767644.0,-1092.0506329113923,779614.0,30803.52475247525,779614.0,2274309.5247524753,779614.0,2544035.4752475247,779601.0,26861.40594059406,779601.0,2533146.1485148515,779601.0,2537838.2376237623
767722.0,-985.9493670886076,779714.0,30788.117647058825,779714.0,2274294.4509803923,779714.0,2544050.4509803923,779701.0,26861.70588235294,779701.0,2533102.470588235,779701.0,2537759.254901961
767800.0,-864.6708860759494,779814.0,30794.0,779814.0,2274317.0,779814.0,2544023.0,779801.0,26860.70588235294,779801.0,2533074.6470588236,779801.0,2537687.4411764704
767878.0,-743.3037974683544,779914.0,30791.029702970296,779914.0,2274313.0396039602,779914.0,2544037.8514851485,779901.0,26848.20588235294,779901.0,2533051.8529411764,779901.0,2537636.705882353
767956.0,-613.0759493670886,780014.0,30799.821782178216,780014.0,2274320.8415841586,780014.0,2544034.079207921,780001.0,26855.901960784315,780001.0,2533032.1666666665,780001.0,2537594.8529411764
768034.0,-482.1898734177215,780114.0,30832.019801980197,780114.0,2274321.9702970297,780114.0,2544043.702970297,780101.0,26859.617647058825,780101.0,2533017.1470588236,780101.0,2537561.029411765
768112.0,-336.40506329113924,780214.0,30817.633663366338,780214.0,2274309.5148514854,780214.0,2544065.128712871,780201.0,26863.50495049505,780201.0,2533017.336633663,780201.0,2537568.9504950494
768190.0,-163.2,780314.0,30825.554455445545,780314.0,2274323.2574257427,780314.0,2544062.198019802,780301.0,26870.0,780301.0,2533052.3529411764,780301.0,2537589.1764705884
768268.0,35.20253164556962,780414.0,30851.396039603962,780414.0,2274339.0495049506,780414.0,2544062.9405940594,780401.0,26869.843137254902,780401.0,2533074.274509804,780401.0,2537612.0
768346.0,262.63291139240505,780514.0,30843.69306930693,780514.0,2274335.3465346536,780514.0,2544078.8217821782,780501.0,26870.92156862745,780501.0,2533107.31372549,780501.0,2537657.745098039
768424.0,484.65822784810126,780614.0,30853.941176470587,780614.0,2274337.7352941176,780614.0,2544084.5588235296,780601.0,26884.29411764706,780601.0,2533104.0588235296,780601.0,2537681.705882353
768502.0,682.2784810126582,780714.0,30860.40594059406,780714.0,2274346.108910891,780714.0,2544098.5148514854,780701.0,26894.882352941175,780701.0,2533115.2352941176,780701.0,2537737.098039216
768580.0,855.7215189873418,780814.0,30884.168316831685,780814.0,2274347.891089109,780814.0,2544108.0198019804,780801.0,26904.029702970296,780801.0,2533144.7623762377,780801.0,2537787.881188119
768658.0,991.2911392405064,780914.0,30905.50495049505,780914.0,2274340.9504950494,780914.0,2544120.4554455443,780901.0,26915.382352941175,780901.0,2533141.656862745,780901.0,2537837.8725490198
768736.0,1112.5822784810127,781014.0,30901.90099009901,781014.0,2274353.0693069305,781014.0,2544132.4554455443,781001.0,26908.07843137255,781001.0,2533138.3235294116,781001.0,2537907.8235294116
768814.0,1240.1,781114.0,30915.643564356436,781114.0,2274359.306930693,781114.0,2544140.891089109,781101.0,26929.676470588234,781101.0,2533165.3529411764,781101.0,2537984.205882353
768892.0,1363.5822784810127,781214.0,30930.772277227723,781214.0,2274366.8118811883,781214.0,2544151.3663366335,781201.0,26952.08823529412,781201.0,2533209.970588235,781201.0,2538057.5098039214
768970.0,1412.6962025316457,781314.0,30963.29702970297,781314.0,2274368.0,781314.0,2544149.6336633665,781301.0,26960.91176470588,781301.0,2533207.029411765,781301.0,2538108.4901960786
769048.0,1253.4556962025317,781414.0,30967.352941176472,781414.0,2274389.411764706,781414.0,2544168.7647058824,781401.0,26963.91176470588,781401.0,2533244.8529411764,781401.0,2538164.3235294116
769126.0,859.2025316455696,781514.0,30977.554455445545,781514.0,2274380.198019802,781514.0,2544194.920792079,781501.0,26981.117647058825,781501.0,2533294.5,781501.0,2538256.343137255
769204.0,351.3291139240506,781614.0,30976.79207920792,781614.0,2274386.623762376,781614.0,2544198.3960396037,781601.0,26981.059405940596,781601.0,2533297.9405940594,781601.0,2538309.910891089
769282.0,-119.9367088607595,781714.0,31004.51485148515,781714.0,2274408.00990099,781714.0,2544212.2574257427,781701.0,26989.29411764706,781701.0,2533342.2352941176,781701.0,2538395.9411764704
769360.0,-465.69620253164555,781814.0,31027.643564356436,781814.0,2274412.217821782,781814.0,2544228.5148514854,781801.0,27009.843137254902,781801.0,2533364.9411764704,781801.0,2538466.137254902
769438.0,-716.9113924050633,781914.0,31033.544554455446,781914.0,2274413.5445544557,781914.0,2544241.2673267326,781901.0,27024.352941176472,781901.0,2533384.6470588236,781901.0,2538543.588235294
769516.0,-901.2151898734177,782014.0,31051.534653465347,782014.0,2274416.287128713,782014.0,2544253.1485148515,782001.0,27035.49019607843,782001.0,2533415.470588235,782001.0,2538628.0588235296
769594.0,-1029.6,782114.0,31066.029702970296,782114.0,2274426.0297029703,782114.0,2544281.584158416,782101.0,27036.156862745098,782101.0,2533430.9607843137,782101.0,2538690.588235294
769672.0,-1122.1772151898733,782214.0,31097.676470588234,782214.0,2274434.1470588236,782214.0,2544290.0,782201.0,27041.821782178216,782201.0,2533463.7722772276,782201.0,2538744.079207921
769750.0,-1148.607594936709,782314.0,31115.950495049507,782314.0,2274444.673267327,782314.0,2544311.6831683167,782301.0,27058.460784313724,782301.0,2533491.970588235,782301.0,2538816.470588235
769828.0,-1126.253164556962,782414.0,31123.9900990099,782414.0,2274462.2574257427,782414.0,2544348.5148514854,782401.0,27065.970588235294,782401.0,2533509.705882353,782401.0,2538858.794117647
769906.0,-1090.607594936709,782514.0,31146.38613861386,782514.0,2274470.8118811883,782514.0,2544355.079207921,782501.0,27076.29411764706,782501.0,2533543.9803921566,782501.0,2538884.588235294
769984.0,-1066.2278481012659,782614.0,31180.643564356436,782614.0,2274481.702970297,782614.0,2544370.326732673,782601.0,27086.549019607843,782601.0,2533565.0784313725,782601.0,2538936.8039215687
770062.0,-1066.5316455696202,782714.0,31199.51485148515,782714.0,2274485.3168316833,782714.0,2544394.3960396037,782701.0,27095.617647058825,782701.0,2533567.529411765,782701.0,2538985.088235294
770140.0,-1025.493670886076,782814.0,31215.79207920792,782814.0,2274485.0,782814.0,2544417.4851485146,782801.0,27107.303921568626,782801.0,2533607.794117647,782801.0,2539052.8235294116
770218.0,-938.3037974683544,782914.0,31228.56862745098,782914.0,2274492.225490196,782914.0,2544426.970588235,782901.0,27123.653465346535,782901.0,2533619.079207921,782901.0,2539101.712871287
770296.0,-869.0886075949367,783014.0,31244.871287128713,783014.0,2274502.4356435644,783014.0,2544422.207920792,783001.0,27134.49019607843,783001.0,2533643.0784313725,783001.0,2539163.7843137253
770374.0,-833.95,783114.0,31238.69306930693,783114.0,2274500.297029703,783114.0,2544407.594059406,783101.0,27145.0,783101.0,2533669.6666666665,783101.0,2539219.0
770452.0,-830.05,783214.0,31210.41584158416,783214.0,2274496.376237624,783214.0,2544387.2772277226,783201.0,27146.41176470588,783201.0,2533691.882352941,783201.0,2539280.294117647
770530.0,-811.4810126582279,783314.0,31177.742574257427,783314.0,2274486.792079208,783314.0,2544346.4653465347,783301.0,27150.647058823528,783301.0,2533707.529411765,783301.0,2539343.274509804
770608.0,-775.4050632911392,783414.0,31134.80198019802,783414.0,2274466.504950495,783414.0,2544307.881188119,783401.0,27182.56862745098,783401.0,2533725.9803921566,783401.0,2539398.2156862747
770686.0,-750.2658227848101,783514.0,31090.049504950493,783514.0,2274445.118811881,783514.0,2544257.9801980196,783501.0,27195.653465346535,783501.0,2533756.9801980196,783501.0,2539442.7623762377
770764.0,-722.7721518987341,783614.0,31033.27722772277,783614.0,2274432.910891089,783614.0,2544196.9504950494,783601.0,27210.50980392157,783601.0,2533783.568627451,783601.0,2539475.1960784313
770842.0,-705.2911392405064,783714.0,30969.176470588234,783714.0,2274414.0784313725,783714.0,2544136.1764705884,783701.0,27222.882352941175,783701.0,2533790.3235294116,783701.0,2539497.0588235296
770920.0,-721.3164556962025,783814.0,30913.168316831685,783814.0,2274399.782178218,783814.0,2544079.0594059406,783801.0,27223.617647058825,783801.0,2533785.7647058824,783801.0,2539475.882352941
770998.0,-765.2405063291139,783914.0,30862.227722772277,783914.0,2274390.376237624,783914.0,2544037.574257426,783901.0,27233.833333333332,783901.0,2533747.6666666665,783901.0,2539365.7843137253
771076.0,-814.3037974683544,784014.0,30816.0099009901,784014.0,2274374.910891089,784014.0,2543998.405940594,784001.0,27232.0,784001.0,2533640.5,784001.0,2539109.0
771154.0,-802.5316455696202,784114.0,30771.336633663366,784114.0,2274351.782178218,784114.0,2543952.336633663,784101.0,27213.352941176472,784101.0,2533476.1666666665,784101.0,2538689.843137255
771232.0,-740.6075949367089,784214.0,30726.861386138615,784214.0,2274340.574257426,784214.0,2543927.9405940594,784201.0,27182.59405940594,784201.0,2533255.6831683167,784201.0,2538102.326732673
771310.0,-674.8875,784314.0,30687.31683168317,784314.0,2274326.336633663,784314.0,2543907.3168316833,784301.0,27123.274509803923,784301.0,2533003.9607843137,784301.0,2537447.3921568627
771388.0,-611.3417721518988,784414.0,30654.0,784414.0,2274309.0,784414.0,2543879.5,784401.0,27037.43137254902,784401.0,2532788.0392156863,784401.0,2536917.1960784313
771466.0,-570.0253164556962,784514.0,30636.572815533982,784514.0,2274300.2330097086,784514.0,2543854.9514563107,784501.0,26936.32,784501.0,2532629.6,784501.0,2536536.38
771544.0,-555.0253164556962,784614.0,30613.9900990099,784614.0,2274295.2574257427,784614.0,2543832.0198019804,784601.0,26835.21153846154,784601.0,2532533.346153846,784601.0,2536273.6153846155
771622.0,-558.493670886076,784714.0,30591.91089108911,784714.0,2274288.5247524753,784714.0,2543816.712871287,784701.0,26732.06,784701.0,2532462.08,784701.0,2536098.42
771700.0,-553.8227848101266,784814.0,30580.079207920793,784814.0,2274276.4455445544,784814.0,2543797.306930693,784801.0,26635.06796116505,784801.0,2532396.718446602,784801.0,2535973.368932039
771778.0,-500.3544303797468,784914.0,30558.772277227723,784914.0,2274280.0495049506,784914.0,2543777.0297029703,784901.0,26573.25,784901.0,2532366.65,784901.0,2535890.8
771856.0,-451.88607594936707,785014.0,30543.91089108911,785014.0,2274269.5247524753,785014.0,2543765.0198019804,785001.0,26523.0,785001.0,2532348.8,785001.0,2535851.75
771934.0,-450.54430379746833,785114.0,30524.68316831683,785114.0,2274258.7326732674,785114.0,2543766.405940594,785101.0,26441.32,785101.0,2532348.3,785101.0,2535860.77
772012.0,-485.746835443038,785214.0,30512.18,785214.0,2274266.49,785214.0,2543763.34,785201.0,26427.06730769231,785201.0,2532370.1923076925,785201.0,2535925.778846154
772090.0,-515.7215189873418,785314.0,30511.0,785314.0,2274260.3980582524,785314.0,2543743.6213592235,785301.0,26435.22,785301.0,2532386.77,785301.0,2535991.6
772168.0,-495.8481012658228,785414.0,30509.48,785414.0,2274260.62,785414.0,2543740.04,785401.0,26431.23076923077,785401.0,2532432.826923077,785401.0,2536068.4326923075
772246.0,-440.9367088607595,785514.0,30504.392156862745,785514.0,2274255.901960784,785514.0,2543738.294117647,785501.0,26452.871287128713,785501.0,2532465.0594059406,785501.0,2536149.693069307
772324.0,-379.40506329113924,785614.0,30502.88,785614.0,2274254.4,785614.0,2543730.6,785601.0,26465.78431372549,785601.0,2532502.588235294,785601.0,2536269.431372549
772402.0,-351.1012658227848,785714.0,30509.41176470588,785714.0,2274263.294117647,785714.0,2543747.588235294,785701.0,26468.92156862745,785701.0,2532561.2156862747,785701.0,2536378.843137255
772480.0,-334.7341772151899,785814.0,30515.852216748768,785814.0,2274265.0147783253,785814.0,2543768.339901478,785801.0,26487.647058823528,785801.0,2532604.117647059,785801.0,2536514.3529411764
772558.0,-202.68354430379748,785914.0,30527.18226600985,785914.0,2274273.881773399,785914.0,2543772.280788177,785901.0,26506.117647058825,785901.0,2532637.098039216,785901.0,2536635.4901960786
772636.0,127.86250000000001,786014.0,30536.24,786014.0,2274281.86,786014.0,2543779.03,786001.0,26538.86274509804,786001.0,2532692.0392156863,786001.0,2536768.294117647
772714.0,601.5569620253165,786114.0,30539.0,786114.0,2274285.3921568627,786114.0,2543797.117647059,786101.0,26540.4,786101.0,2532737.08,786101.0,2536894.64
772792.0,1053.4810126582279,786214.0,30542.48,786214.0,2274290.38,786214.0,2543815.39,786201.0,26560.796116504855,786201.0,2532793.8932038834,786201.0,2537039.0291262134
772870.0,1337.0759493670887,786314.0,30560.382352941175,786314.0,2274303.156862745,786314.0,2543809.2843137253,786301.0,26584.91176470588,786301.0,2532838.3235294116,786301.0,2537167.911764706
772948.0,1475.5822784810127,786414.0,30582.11,786414.0,2274296.0,786414.0,2543812.43,786401.0,26615.549019607843,786401.0,2532917.705882353,786401.0,2537332.568627451
773026.0,1530.9746835443038,786514.0,30584.941176470587,786514.0,2274294.411764706,786514.0,2543821.382352941,786501.0,26624.960784313724,786501.0,2532970.9901960786,786501.0,2537483.6960784313
773104.0,1438.392405063291,786614.0,30603.75,786614.0,2274289.5,786614.0,2543831.5,786601.0,26662.823529411766,786601.0,2533030.7647058824,786601.0,2537636.3529411764
773182.0,1105.632911392405,786714.0,30602.495145631066,786714.0,2274290.427184466,786714.0,2543839.0873786407,786701.0,26657.166666666668,786701.0,2533089.4901960786,786701.0,2537748.3725490198
773260.0,599.9873417721519,786814.0,30619.19801980198,786814.0,2274299.306930693,786814.0,2543826.079207921,786801.0,26673.833333333332,786801.0,2533138.5098039214,786801.0,2537885.6274509802
773338.0,155.8625,786914.0,30597.30693069307,786914.0,2274303.792079208,786914.0,2543807.6336633665,786901.0,26689.68316831683,786901.0,2533179.1881188117,786901.0,2538005.6039603963
773416.0,-66.55696202531647,787014.0,30647.80198019802,787014.0,2274302.00990099,787014.0,2543789.217821782,787001.0,26713.058823529413,787001.0,2533212.6666666665,787001.0,2538109.843137255
773494.0,-129.21518987341773,787114.0,30648.50495049505,787114.0,2274297.623762376,787114.0,2543783.693069307,787101.0,26746.0,787101.0,2533245.0588235296,787101.0,2538204.3529411764
773572.0,-207.0253164556962,787214.0,30654.10891089109,787214.0,2274298.495049505,787214.0,2543788.504950495,787201.0,26752.607843137255,787201.0,2533265.431372549,787201.0,2538300.31372549
773650.0,-392.59493670886076,787314.0,30652.52475247525,787314.0,2274308.8217821782,787314.0,2543782.7227722774,787301.0,26762.92156862745,787301.0,2533291.3529411764,787301.0,2538324.2352941176
773728.0,-585.5443037974684,787414.0,30659.61386138614,787414.0,2274302.6831683167,787414.0,2543812.108910891,787401.0,26772.823529411766,787401.0,2533301.0588235296,787401.0,2538367.470588235
773806.0,-647.0886075949367,787514.0,30631.445544554455,787514.0,2274302.782178218,787514.0,2543816.9603960398,787501.0,26794.91089108911,787501.0,2533304.613861386,787501.0,2538354.702970297
773884.0,-653.2278481012659,787614.0,30631.529411764706,787614.0,2274313.8235294116,787614.0,2543810.862745098,787601.0,26796.29411764706,787601.0,2533297.3235294116,787601.0,2538329.8235294116
773962.0,-645.0253164556962,787714.0,30617.78217821782,787714.0,2274317.8118811883,787714.0,2543813.207920792,787701.0,26807.666666666668,787701.0,2533261.0,787701.0,2538258.5
774040.0,-445.70886075949363,787814.0,30631.653465346535,787814.0,2274311.504950495,787814.0,2543834.2772277226,787801.0,26807.558823529413,787801.0,2533244.2352941176,787801.0,2538191.294117647
774118.0,-141.30379746835445,787914.0,30638.881188118812,787914.0,2274333.386138614,787914.0,2543811.900990099,787901.0,26815.735294117647,787901.0,2533206.2647058824,787901.0,2538097.205882353
774196.0,-289.6875,788014.0,30656.62376237624,788014.0,2274343.504950495,788014.0,2543812.871287129,788001.0,26828.06862745098,788001.0,2533171.4411764704,788001.0,2538014.81372549
774274.0,-1257.1772151898736,788114.0,30662.68316831683,788114.0,2274319.504950495,788114.0,2543832.2376237623,788101.0,26838.62376237624,788101.0,2533137.3168316833,788101.0,2537913.900990099
774352.0,-1628.7215189873418,788214.0,30660.10891089109,788214.0,2274337.0,788214.0,2543836.801980198,788201.0,26826.098039215685,788201.0,2533104.411764706,788201.0,2537834.3529411764
774430.0,1952.1139240506327,788314.0,30675.89108910891,788314.0,2274337.1782178218,788314.0,2543862.7227722774,788301.0,26834.058823529413,788301.0,2533093.8235294116,788301.0,2537783.3529411764
774508.0,10021.784810126583,788414.0,30690.19801980198,788414.0,2274340.3960396037,788414.0,2543891.1881188117,788401.0,26829.823529411766,788401.0,2533091.588235294,788401.0,2537742.7647058824
774586.0,16961.886075949365,788514.0,30694.62745098039,788514.0,2274347.8039215687,788514.0,2543915.9215686275,788501.0,26836.29411764706,788501.0,2533083.4509803923,788501.0,2537739.2352941176
774664.0,16256.924050632912,788614.0,30710.257425742573,788614.0,2274343.336633663,788614.0,2543962.6039603963,788601.0,26837.633663366338,788601.0,2533085.386138614,788601.0,2537751.7524752477
774742.0,8387.430379746835,788714.0,30723.10891089109,788714.0,2274359.9702970297,788714.0,2543943.326732673,788701.0,26834.686274509804,788701.0,2533086.029411765,788701.0,2537759.2843137253
774820.0,378.873417721519,788814.0,30734.0,788814.0,2274357.0,788814.0,2543976.0,788801.0,26844.833333333332,788801.0,2533104.754901961,788801.0,2537787.1274509802
