,ecg_time,ecg_sig
0,0.0,136.12813228639314
1,0.005,256.98102616736514
2,0.01,370.93355328449695
3,0.015,468.60175852157175
4,0.02,541.8587645817788
5,0.025,590.2186851211845
6,0.03,622.3788479669546
7,0.035,651.5374975317519
8,0.04,688.9718874695452
9,0.045,739.618613891693
10,0.05,800.8192385006607
11,0.055,864.5847359433483
12,0.06,922.3807693956392
13,0.065,969.3908249317777
14,0.07,1005.9445706782295
15,0.075,1036.7000998693388
16,0.08,1068.8269928045117
17,0.085,1109.0604072606302
18,0.09,1160.2596147147262
19,0.095,1220.328036738609
20,0.1,1285.1956121339829
21,0.105,1353.3987863733837
22,0.11,1428.279340522837
23,0.115,1516.416269999409
24,0.12,1623.4261679791384
25,0.125,1749.0261319450374
26,0.13,1884.3689563824764
27,0.135,2015.121133950676
28,0.14,2129.9024212505865
29,0.145,2227.8072883027166
30,0.15,2318.3268319793506
31,0.155,2413.536569043564
32,0.16,2518.4489531495415
33,0.165,2625.3663551048403
34,0.17,2714.5009196258634
35,0.17500000000000002,2760.170965441139
36,0.18,2739.6472443441858
37,0.185,2640.196628679537
38,0.19,2461.324725838781
39,0.195,2213.2370869330616
40,0.2,1914.4845295874275
41,0.20500000000000002,1589.53775004409
42,0.21,1264.6212530772086
43,0.215,961.4042471743213
44,0.22,691.3551884138512
45,0.225,454.55615381867466
46,0.23,244.32380168832162
47,0.23500000000000001,55.10487685350793
48,0.24,-111.41774458583822
49,0.245,-246.24856532928712
50,0.25,-339.1097216918502
51,0.255,-386.1384502646335
52,0.26,-393.8960489238308
53,0.265,-377.6432554013854
54,0.27,-355.73820532795855
55,0.275,-343.21636820223887
56,0.28,-346.8301948531688
57,0.28500000000000003,-363.20208687240046
58,0.29,-381.13391989767445
59,0.295,-387.4269305166458
60,0.3,-373.6531758601079
61,0.305,-340.82895809929425
62,0.31,-299.79865658928145
63,0.315,-266.5611351501645
64,0.32,-254.11600860336912
65,0.325,-265.38064323757203
66,0.33,-292.3561202889251
67,0.335,-322.55566479778145
68,0.34,-347.6220403093414
69,0.34500000000000003,-367.2702272949607
70,0.35000000000000003,-386.2144307590154
71,0.355,-407.7364756336111
72,0.36,-429.45335757909027
73,0.365,-444.2574086373878
74,0.37,-445.46101709086656
75,0.375,-432.2889124404988
76,0.38,-411.4074792282978
77,0.385,-393.0560102091839
78,0.39,-384.8164820702067
79,0.395,-387.8328136145717
80,0.4,-397.61405407856233
81,0.405,-407.80728483873077
82,0.41000000000000003,-414.1722932537208
83,0.41500000000000004,-416.92880591632957
84,0.42,-420.5990293834942
85,0.425,-431.3994266350644
86,0.43,-453.60741156597726
87,0.435,-486.94435913474285
88,0.44,-526.0671116743441
89,0.445,-562.1201497301497
90,0.45,-586.0402624728324
91,0.455,-592.8067086023042
92,0.46,-584.487665651792
93,0.465,-569.6710157360206
94,0.47000000000000003,-559.0680380944582
95,0.47500000000000003,-559.8790162367691
96,0.48,-572.3771885239088
97,0.485,-590.786347679784
98,0.49,-607.6491188197244
99,0.495,-617.697342525185
100,0.5,-616.9521840082904
101,0.505,-597.7119640120789
102,0.51,-545.7058639399014
103,0.515,-444.4024479241644
104,0.52,-284.1359797544777
105,0.525,-69.43687612497632
106,0.53,179.49743090065004
107,0.535,431.5542012377851
108,0.54,654.9020674466374
109,0.545,829.4894812801922
110,0.55,953.942070128896
111,0.555,1039.3044759057689
112,0.56,1092.1768334221315
113,0.5650000000000001,1100.8460361809928
114,0.5700000000000001,1037.485035107462
115,0.5750000000000001,877.0763066522966
116,0.58,620.2867883323635
117,0.585,303.19681498484294
118,0.59,-15.094694649886769
119,0.595,-280.205679978842
120,0.6,-467.4527493008691
121,0.605,-588.7895521073626
122,0.61,-679.6423428083139
123,0.615,-775.0555902577537
124,0.62,-888.3712229258123
125,0.625,-1004.5224733622689
126,0.63,-1094.1833018505224
127,0.635,-1140.871814456159
128,0.64,-1157.5667541841203
129,0.645,-1172.3389738808455
130,0.65,-1191.03716295125
131,0.655,-1173.8657416170377
132,0.66,-1058.745755937007
133,0.665,-827.8115002094692
134,0.67,-574.1886478395594
135,0.675,-506.9130847670086
136,0.68,-842.6875769255729
137,0.685,-1592.596707169433
138,0.6900000000000001,-2359.496535648262
139,0.6950000000000001,-2341.2953968294037
140,0.7000000000000001,-668.1867678841254
141,0.705,3031.3634353940583
142,0.71,8179.857896401317
143,0.715,13279.59125010796
144,0.72,16515.50532513538
145,0.725,16637.27461587317
146,0.73,13604.7332430474
147,0.735,8603.02884339991
148,0.74,3422.435311467325
149,0.745,-417.48011649092814
150,0.75,-2294.8188273698333
151,0.755,-2554.6762597515058
152,0.76,-2074.271530078171
153,0.765,-1663.3280490294142
154,0.77,-1677.4078823222178
155,0.775,-2014.5424507904113
156,0.78,-2382.5263578730146
157,0.785,-2576.8313565164317
158,0.79,-2581.5571524814754
159,0.795,-2494.932889954877
160,0.8,-2408.0469161400874
161,0.805,-2347.530859716618
162,0.81,-2294.70543859972
163,0.8150000000000001,-2227.7462124051126
164,0.8200000000000001,-2141.6200029194633
165,0.8250000000000001,-2042.2793333714558
166,0.8300000000000001,-1935.0027629849778
167,0.835,-1820.8100593530535
168,0.84,-1699.893204899217
169,0.845,-1574.9601407245393
170,0.85,-1451.089983692746
171,0.855,-1333.6640816840238
172,0.86,-1226.7275855344724
173,0.865,-1132.25164743043
174,0.87,-1049.8887043944064
175,0.875,-977.337149282929
176,0.88,-911.271174447684
177,0.885,-847.9108841826721
178,0.89,-782.8378019344409
179,0.895,-711.4051894431027
180,0.9,-630.9304062527142
181,0.905,-543.0464989950766
182,0.91,-452.9781077511125
183,0.915,-365.07898598356485
184,0.92,-278.11259787207024
185,0.925,-184.68344014015932
186,0.93,-76.01488619535931
187,0.935,50.94249944923001
188,0.9400000000000001,189.1371491277996
189,0.9450000000000001,323.52032675483747
190,0.9500000000000001,439.1888349916253
191,0.9550000000000001,530.6231484845649
192,0.96,605.9000907917479
193,0.965,682.9240772255066
194,0.97,779.142884920636
195,0.975,899.0734287089655
196,0.98,1025.7299270269375
197,0.985,1122.3551406119218
198,0.99,1146.2777757486106
199,0.995,1067.8356773385076
200,1.0,882.588522189277
201,1.0050000000000001,610.5695174464477
202,1.01,286.1141505117872
203,1.0150000000000001,-54.144708935460116
204,1.02,-380.0598865779403
205,1.025,-671.7804060308642
206,1.03,-918.9446598521283
207,1.035,-1117.8878687922365
208,1.04,-1270.2049565612222
209,1.045,-1382.952065125182
210,1.05,-1467.3489752730557
211,1.055,-1534.0668823404803
212,1.06,-1587.6119375493988
213,1.065,-1624.1926686614574
214,1.07,-1635.050641476418
215,1.075,-1613.5806404018726
216,1.08,-1562.039944011341
217,1.085,-1493.065449011535
218,1.09,-1424.0318092642167
219,1.095,-1367.8908308757184
220,1.1,-1327.3345386268488
221,1.105,-1296.0115600734725
222,1.11,-1264.6350581950671
223,1.115,-1227.2515833523566
224,1.12,-1184.28453350894
225,1.125,-1141.2104050380112
226,1.1300000000000001,-1104.1750751877075
227,1.135,-1076.251279422276
228,1.1400000000000001,-1057.356847673632
229,1.145,-1046.5088571451336
230,1.1500000000000001,-1042.6533862655115
231,1.155,-1043.429779196197
232,1.16,-1044.7907380348609
233,1.165,-1042.7546497173098
234,1.17,-1035.0625652721562
235,1.175,-1021.1104450116167
236,1.18,-1001.4018689399829
237,1.185,-977.5886527199981
238,1.19,-952.0646116463449
239,1.195,-926.7112168560744
240,1.2,-902.5579610387733
241,1.205,-881.0644651464213
242,1.21,-864.7041410495533
243,1.215,-855.1103680658836
244,1.22,-850.85778085386
245,1.225,-847.866464915385
246,1.23,-842.0773711891338
247,1.235,-831.6564235288822
248,1.24,-817.2028368706293
249,1.245,-800.3781863380467
250,1.25,-782.012876793711
251,1.2550000000000001,-761.1357465654821
252,1.26,-736.2228573047666
253,1.2650000000000001,-707.7812891752606
254,1.27,-679.2605184868399
255,1.2750000000000001,-654.9373258155274
256,1.28,-637.182453565961
257,1.285,-625.9139238497934
258,1.29,-619.7642924895335
259,1.295,-616.8235348916603
260,1.3,-614.6033801781539
261,1.305,-610.3051242625049
262,1.31,-601.5695920822317
263,1.315,-586.9958749266009
264,1.32,-566.1004001695244
265,1.325,-538.5838045552549
266,1.33,-502.6036350373479
267,1.335,-452.5187759575973
268,1.34,-377.5938858316698
269,1.345,-262.9327010177189
270,1.35,-93.33193894725787
271,1.355,139.42776490283967
272,1.36,427.4067251920969
273,1.365,741.4812148185532
274,1.37,1037.5501987223288
275,1.375,1273.5218280521945
276,1.3800000000000001,1426.0587661316204
277,1.385,1494.3765424334897
278,1.3900000000000001,1488.9925684387508
279,1.395,1416.2035118346046
280,1.4000000000000001,1272.1611533282307
281,1.405,1051.7472735174833
282,1.41,764.919764295398
283,1.415,446.4091624384928
284,1.42,148.47611377308786
285,1.425,-81.35512638887965
286,1.43,-223.7209703667728
287,1.435,-295.8513431754355
288,1.44,-338.5116192864831
289,1.445,-389.57763891833724
290,1.45,-461.8436957725242
291,1.455,-540.4346404258888
292,1.46,-601.1135786658448
293,1.465,-633.0414196183392
294,1.47,-643.5168646653324
295,1.475,-638.1975710738509
296,1.48,-597.6216750616722
297,1.485,-482.237948015858
298,1.49,-277.5453575211422
299,1.495,-51.90154381850053
300,1.5,28.655357984940764
301,1.5050000000000001,-220.9508684172281
302,1.51,-831.852618154742
303,1.5150000000000001,-1499.3101114695833
304,1.52,-1549.0563682797936
305,1.5250000000000001,-180.43576712697512
306,1.53,3053.320648528558
307,1.5350000000000001,7785.624087873295
308,1.54,12742.993030071344
309,1.545,16195.49670113426
310,1.55,16776.394304512858
311,1.555,14204.994917331634
312,1.56,9458.473386700036
313,1.565,4272.329875526092
314,1.57,270.7112247808052
315,1.575,-1758.7381483560357
316,1.58,-2055.504373844289
317,1.585,-1508.4917489152936
318,1.59,-1018.5623461326403
319,1.595,-1022.0159957155387
320,1.6,-1423.8446578338712
321,1.605,-1875.3582700336196
322,1.61,-2112.949807647128
323,1.615,-2105.720992676859
324,1.62,-1976.0050043339143
325,1.625,-1843.107757768527
326,1.6300000000000001,-1744.6974274664453
327,1.635,-1661.7469687323737
328,1.6400000000000001,-1573.1676484493682
329,1.645,-1476.8395705059038
330,1.6500000000000001,-1377.8995293064029
331,1.655,-1276.113909905949
332,1.6600000000000001,-1167.5350849122558
333,1.665,-1052.253364099111
334,1.67,-936.8149358094465
335,1.675,-829.5305878588504
336,1.68,-734.2942253042442
337,1.685,-648.7621494635233
338,1.69,-568.0720919290377
339,1.695,-490.0351202596739
340,1.7,-416.6540984016308
341,1.705,-350.9652905950546
342,1.71,-292.7620188320357
343,1.715,-237.05255199996267
344,1.72,-176.33472382488247
345,1.725,-105.21705503108258
346,1.73,-24.016864074052094
347,1.735,62.44027487172576
348,1.74,150.8229894761804
349,1.745,244.3695077012212
350,1.75,351.1932907976884
351,1.7550000000000001,477.1720189906589
352,1.76,620.686768118124
353,1.7650000000000001,773.7879813746877
354,1.77,927.0876060387559
355,1.7750000000000001,1072.985209807306
356,1.78,1205.8006220566328
357,1.7850000000000001,1321.7054573386122
358,1.79,1420.5350589993457
359,1.795,1507.2488376437216
360,1.8,1588.8096358892697
361,1.805,1665.7935556261693
362,1.81,1724.2346507717557
363,1.815,1735.5522621881466
364,1.82,1667.375700420734
365,1.825,1499.5132679721573
366,1.83,1234.9758177771823
367,1.835,899.4828121374394
368,1.84,530.6250183510983
369,1.845,163.77096272673268
370,1.85,-177.2490419735728
371,1.855,-480.5794139454357
372,1.86,-740.4273657722822
373,1.865,-951.8951722810481
374,1.87,-1111.4553253951276
375,1.875,-1220.912703030708
376,1.8800000000000001,-1288.9162714451186
377,1.885,-1327.6645118389506
378,1.8900000000000001,-1347.9861400178906
379,1.895,-1356.734258137004
380,1.9000000000000001,-1357.146597612826
381,1.905,-1350.5293743876166
382,1.9100000000000001,-1337.8802245636862
383,1.915,-1320.8011838066445
384,1.92,-1301.3326285247672
385,1.925,-1280.9668318775541
386,1.93,-1259.819728139374
387,1.935,-1236.6315919480705
388,1.94,-1209.3209128651877
389,1.945,-1175.599039085674
390,1.95,-1133.6384873893692
391,1.955,-1082.9076053729134
392,1.96,-1024.9715081766135
393,1.965,-963.9493650981268
394,1.97,-906.27774750423
395,1.975,-859.2923848742405
396,1.98,-828.7421229969314
397,1.985,-816.7486774895326
398,1.99,-821.9090329965342
399,1.995,-841.1192773531468
400,2.0,-870.8371926901223
401,2.005,-906.7222551447511
402,2.0100000000000002,-943.2371185939946
403,2.015,-974.9392010800277
404,2.02,-998.7441145223543
405,2.025,-1015.0747496415291
406,2.0300000000000002,-1027.0496123213848
407,2.035,-1038.3857464296848
408,2.04,-1050.8855238200429
409,2.045,-1062.4606506992152
410,2.05,-1067.1647091223763
411,2.055,-1057.987849497
412,2.06,-1030.9508748964427
413,2.065,-987.9126602990041
414,2.07,-936.7986364148386
415,2.075,-889.5661534245584
416,2.08,-858.4611487351733
417,2.085,-851.270803075309
418,2.09,-867.394083618612
419,2.095,-897.1032998057517
420,2.1,-925.0347326130357
421,2.105,-936.8259190234173
422,2.11,-926.1850069268344
423,2.115,-898.5815067386725
424,2.12,-868.2639543187847
425,2.125,-849.2541266789183
426,2.13,-846.2566050451321
427,2.1350000000000002,-852.2544751520307
428,2.14,-854.2215250034573
429,2.145,-842.3287660123972
430,2.15,-816.4541047573443
431,2.1550000000000002,-786.1638246299495
432,2.16,-764.1792226923334
433,2.165,-757.6215147126612
434,2.17,-763.6509796492501
435,2.1750000000000003,-772.900937164991
436,2.18,-776.8403665816658
437,2.185,-771.5786697295492
438,2.19,-755.1577504298909
439,2.195,-722.472739814039
440,2.2,-663.2752252878819
441,2.205,-564.3603586459758
442,2.21,-413.8265167542454
443,2.215,-206.03174757964808
444,2.22,53.144618133508814
445,2.225,342.7508780704068
446,2.23,628.8648010819647
447,2.235,874.5747970006842
448,2.24,1054.0283001904718
449,2.245,1160.8551544390334
450,2.25,1202.89959156108
451,2.255,1186.5603800543636
452,2.2600000000000002,1105.546249261948
453,2.265,946.7404896284883
454,2.27,709.6813140769744
455,2.275,422.0667682717219
456,2.2800000000000002,136.03481075383536
457,2.285,-94.62410600350698
458,2.29,-242.08790955850958
459,2.295,-319.22902238415855
460,2.3000000000000003,-370.7587205596737
461,2.305,-443.9057528970331
462,2.31,-556.337579193407
463,2.315,-684.517397041542
464,2.32,-783.6213747837559
465,2.325,-824.8767293542596
466,2.33,-817.9564814735412
467,2.335,-795.6003948739514
468,2.34,-772.2501335627726
469,2.345,-717.7074262644682
470,2.35,-580.7644172251229
471,2.355,-358.13134914034777
472,2.36,-159.1605203717076
473,2.365,-195.0475393931475
474,2.37,-643.697401161952
475,2.375,-1423.5469840350079
476,2.38,-2025.310894094101
477,2.3850000000000002,-1600.3891191563646
478,2.39,616.9889572887147
479,2.395,4740.001652694646
480,2.4,9897.984266723155
481,2.4050000000000002,14453.483221393097
482,2.41,16730.167041803645
483,2.415,15850.485679839132
484,2.42,12183.634283458718
485,2.4250000000000003,7140.081310930206
486,2.43,2446.0643810785778
487,2.435,-670.5512959670469
488,2.44,-1930.7617809682579
489,2.445,-1893.13238714002
490,2.45,-1436.1805528982559
491,2.455,-1209.195312412884
492,2.46,-1378.5033387505448
493,2.465,-1741.137293503382
494,2.47,-2020.8299245765193
495,2.475,-2090.107891981721
496,2.48,-1995.0708521789018
497,2.485,-1845.6037747794537
498,2.49,-1710.1343138508378
499,2.495,-1592.7029027027315
500,2.5,-1470.5747947111818
501,2.505,-1332.031158096485
502,2.5100000000000002,-1183.8110970140165
503,2.515,-1038.8171303175918
504,2.52,-905.3795916528841
505,2.525,-785.9053063928116
506,2.5300000000000002,-680.4127506590917
507,2.535,-589.3027919491828
508,2.54,-513.326673278067
509,2.545,-451.09768936933193
510,2.5500000000000003,-396.1497636102999
511,2.555,-336.8949166567737
512,2.56,-261.37368274838053
513,2.565,-164.30183958371887
514,2.57,-51.06475335906579
515,2.575,64.68936031800648
516,2.58,168.5659352344193
517,2.585,253.60289158661263
518,2.59,324.30656732314276
519,2.595,393.75137435394447
520,2.6,475.20015930169205
521,2.605,574.1341093949904
522,2.61,686.574940019541
523,2.615,803.8833625542954
524,2.62,918.6477336891551
525,2.625,1026.8981249927633
526,2.63,1126.8886972334642
527,2.6350000000000002,1217.6346703424626
528,2.64,1299.0938709886534
529,2.645,1373.4340470009552
530,2.65,1445.7049286726738
531,2.6550000000000002,1522.3628427754802
532,2.66,1607.3371260258182
533,2.665,1697.3804931602083
534,2.67,1779.3876001287301
535,2.6750000000000003,1831.0872175598136
536,2.68,1825.0343683890737
537,2.685,1735.7397779344233
538,2.69,1548.9860948009837
539,2.695,1269.5112551928046
540,2.7,921.9112199662861
541,2.705,543.2565373003468
542,2.71,171.3512793984457
543,2.715,-165.69646732322556
544,2.72,-454.8147769330593
545,2.725,-696.556273297175
546,2.73,-897.6685438542844
547,2.735,-1062.3402312858386
548,2.74,-1188.7473456048713
549,2.745,-1273.145207775617
550,2.75,-1316.6796652737164
551,2.755,-1328.236211488177
552,2.7600000000000002,-1321.194390746337
553,2.765,-1307.0850634190556
554,2.77,-1290.820041114196
555,2.775,-1270.7425578286702
556,2.7800000000000002,-1243.3316015847536
557,2.785,-1208.5662579047741
558,2.79,-1171.2279810990406
559,2.795,-1137.4810852060946
560,2.8000000000000003,-1110.7593522320683
561,2.805,-1090.798392747467
562,2.81,-1075.4898371418876
563,2.815,-1062.7948626424707
564,2.82,-1051.2278841697853
565,2.825,-1039.2733581309903
566,2.83,-1024.6691832978654
567,2.835,-1004.7998691279777
568,2.84,-979.0742860520043
569,2.845,-951.7782405710489
570,2.85,-931.8761471392866
571,2.855,-928.3811881899991
572,2.86,-944.4634047067718
573,2.865,-974.7831660550416
574,2.87,-1007.5608916870327
575,2.875,-1029.809567959713
576,2.88,-1033.2175199267367
577,2.8850000000000002,-1018.0052060318624
578,2.89,-992.5941872785872
579,2.895,-969.4526862806434
580,2.9,-960.0791340523199
581,2.9050000000000002,-971.2239180689068
582,2.91,-1001.839759831089
583,2.915,-1040.9937543857448
584,2.92,-1070.0678533732387
585,2.9250000000000003,-1071.3278073790543
586,2.93,-1038.6050546573847
587,2.935,-982.2078562604592
588,2.94,-924.0583902856939
589,2.945,-886.0170144559308
590,2.95,-878.261335902778
591,2.955,-894.1995443759745
592,2.96,-914.8256827124683
593,2.965,-919.81826057081
594,2.97,-898.3753008915579
595,2.975,-853.6945348717246
596,2.98,-800.121720829307
597,2.985,-756.0549212359742
598,2.99,-736.2189214409037
599,2.995,-746.0591308263895
600,3.0,-780.3147752078495
601,3.005,-826.1617944778195
602,3.0100000000000002,-868.7601211200783
603,3.015,-896.1873623290052
604,3.02,-902.2781081635601
605,3.025,-887.2801113383069
606,3.0300000000000002,-856.3773342445887
607,3.035,-816.7684962638466
608,3.04,-775.1768049108942
609,3.045,-736.8990992826823
610,3.0500000000000003,-705.0143575226762
611,3.055,-678.0264289792226
612,3.06,-647.1377520894438
613,3.065,-596.446414833954
614,3.0700000000000003,-507.53780344511154
615,3.075,-366.60954390292704
616,3.08,-171.04278992928346
617,3.085,67.04990135741147
618,3.09,322.30713165873124
619,3.095,563.6892993798431
620,3.1,765.9060780515179
621,3.105,918.3826879154635
622,3.11,1025.1314809513276
623,3.115,1094.415961484133
624,3.12,1124.9290550537958
625,3.125,1099.2171479179501
626,3.13,991.442586258266
627,3.1350000000000002,786.6260552390354
628,3.14,498.80675423010416
629,3.145,174.13886652474784
630,3.15,-125.72031301873648
631,3.1550000000000002,-351.1672020010346
632,3.16,-487.00824782099363
633,3.165,-556.4913654954527
634,3.17,-604.2529717215633
635,3.1750000000000003,-667.5745101090838
636,3.18,-753.7158734894722
637,3.185,-839.469205852114
638,3.19,-894.3695990206735
639,3.1950000000000003,-908.968045173677
640,3.2,-902.0222409023143
641,3.205,-897.1038715089119
642,3.21,-888.9492130517284
643,3.215,-835.3149801025972
644,3.22,-694.1851980523313
645,3.225,-489.23398415426635
646,3.23,-353.1743469195609
647,3.235,-488.96871495988546
648,3.24,-1018.9134082945525
649,3.245,-1772.0193984884518
650,3.25,-2161.215390124674
651,3.255,-1329.2886378778812
652,3.2600000000000002,1394.1627512991515
653,3.265,5939.119347457642
654,3.27,11232.413802124289
655,3.275,15508.077153282837
656,3.2800000000000002,17111.01079337684
657,3.285,15351.878912450979
658,3.29,10890.90757625689
659,3.295,5404.793723397795
660,3.3000000000000003,734.732112262719
661,3.305,-1978.3326257464066
662,3.31,-2688.158988473724
663,3.315,-2203.550162855414
664,3.3200000000000003,-1545.513663768837
665,3.325,-1347.4172741108853
666,3.33,-1649.4607816678015
667,3.335,-2117.6360808852837
668,3.34,-2421.9646628090136
669,3.345,-2463.9752765796384
670,3.35,-2346.3401135313743
671,3.355,-2209.0968756600278
672,3.36,-2113.5906870428917
673,3.365,-2042.632918016573
674,3.37,-1961.4569440811724
675,3.375,-1860.8559786772921
676,3.38,-1756.8193743628774
677,3.3850000000000002,-1668.3672708921604
678,3.39,-1600.7169809626737
679,3.395,-1543.55767162618
680,3.4,-1480.4527908173486
681,3.4050000000000002,-1400.9838360475383
682,3.41,-1307.397609005581
683,3.415,-1211.3246662542435
684,3.42,-1123.749724473094
685,3.4250000000000003,-1046.998766487068
686,3.43,-974.7841681285697
687,3.435,-898.3506848877137
688,3.44,-812.4717809837523
689,3.4450000000000003,-717.3652930354247
690,3.45,-616.5271104236954
691,3.455,-512.3894106179534
692,3.46,-402.79820300530093
693,3.465,-281.5830801209455
694,3.47,-143.49915673712133
695,3.475,10.781177919152578
696,3.48,174.26099215951703
697,3.485,337.47995393950794
698,3.49,492.4740381820904
699,3.495,634.2016555494309
700,3.5,760.3302147368166
701,3.505,871.0827209874153
702,3.5100000000000002,969.4288574746224
703,3.515,1061.0205395233013
704,3.52,1153.1174263181017
705,3.525,1251.6380260959263
706,3.5300000000000002,1356.495556990976
707,3.535,1457.723228478377
708,3.54,1535.7290730774246
709,3.545,1566.5416946895828
710,3.5500000000000003,1529.5972931213696
711,3.555,1414.5699695636192
712,3.56,1224.6755598368015
713,3.565,975.1358249746536
714,3.5700000000000003,687.1907115215778
715,3.575,380.6297303894935
716,3.58,69.39884401097085
717,3.585,-237.06083934374948
718,3.59,-528.5847258876431
719,3.595,-790.121210506517
720,3.6,-1002.7761449274335
721,3.605,-1150.5095205420273
722,3.61,-1228.8020249280462
723,3.615,-1249.3465525667004
724,3.62,-1236.4992736035
725,3.625,-1216.7595598464475
726,3.63,-1207.762420908083
727,3.6350000000000002,-1213.2945868818958
728,3.64,-1225.9060788474058
729,3.645,-1233.7692891808038
730,3.65,-1227.210803239135
731,3.6550000000000002,-1202.1283145646028
732,3.66,-1159.9716410738617
733,3.665,-1105.7155827842828
734,3.67,-1045.5772263601061
735,3.6750000000000003,-985.2003546083608
736,3.68,-928.1908556260582
737,3.685,-875.468243517578
738,3.69,-826.4693107524974
739,3.6950000000000003,-781.7833357150408
740,3.7,-744.6819923790362
741,3.705,-719.5774471222055
742,3.71,-708.598759729291
743,3.715,-709.3064101333423
744,3.72,-715.1102417314152
745,3.725,-717.713197016333
746,3.73,-710.3299812515078
747,3.735,-690.5982874209095
748,3.74,-661.7243593848257
749,3.745,-630.7361897263792
750,3.75,-604.7743283962682
751,3.755,-588.0606064435486
752,3.7600000000000002,-581.2474715150598
753,3.765,-582.4755944395695
754,3.77,-588.5274503561722
755,3.775,-595.400662948608
756,3.7800000000000002,-598.6618218142195
757,3.785,-594.1027145200278
758,3.79,-578.8738492577302
759,3.795,-552.7407059625936
760,3.8000000000000003,-518.6833903584254
761,3.805,-482.3412560996341
762,3.81,-450.5691052021483
763,3.815,-429.4972857744402
764,3.8200000000000003,-422.13843282276304
765,3.825,-426.2961141529071
766,3.83,-434.85447539737464
767,3.835,-439.5828511632196
768,3.84,-436.0749072737958
769,3.845,-425.714106951946
770,3.85,-413.48859222092153
771,3.855,-404.43457814562777
772,3.86,-401.5113659946139
773,3.865,-404.84611068181226
774,3.87,-411.0200467836038
775,3.875,-412.18181537944514
776,3.88,-395.7759491937351
777,3.8850000000000002,-345.72529752179656
778,3.89,-245.66485215484406
779,3.895,-84.03348199504282
780,3.9,140.43005971752925
781,3.9050000000000002,414.8007945494701
782,3.91,711.7712998128899
783,3.915,995.528799391607
784,3.92,1234.1250427423731
785,3.9250000000000003,1412.4182221926733
786,3.93,1534.83241383925
787,3.935,1612.8975366967375
788,3.94,1646.6153369184528
789,3.9450000000000003,1616.615216500717
790,3.95,1496.0529147589714
791,3.955,1274.472902033389
792,3.96,975.7477570937149
793,3.9650000000000003,655.9210684205435
794,3.97,379.86220418839457
795,3.975,189.5173390136292
796,3.98,83.38281047031131
797,3.985,21.186590535711456
798,3.99,-48.47085420666015
799,3.995,-155.2864672040204
800,4.0,-290.3071276348858
801,4.005,-415.7043713975203
802,4.01,-495.09491113259463
803,4.015,-522.6840829978382
804,4.0200000000000005,-526.1077191099351
805,4.025,-536.1226551847549
806,4.03,-547.8578288583892
807,4.035,-513.9173888075337
808,4.04,-389.10425412767665
809,4.045,-203.78795342524853
810,4.05,-107.68318564170391
811,4.055,-318.1502124649501
812,4.0600000000000005,-945.4599561702894
813,4.065,-1764.6620227000758
814,4.07,-2113.837995673415
815,4.075,-1101.1569302634853
816,4.08,1882.8978166181223
817,4.085,6625.974289284869
818,4.09,11924.407700313148
819,4.095,15995.241417115976
820,4.1,17300.913536910997
821,4.105,15324.331865965127
822,4.11,10835.804527065244
823,4.115,5491.881197975703
824,4.12,1006.5752362473465
825,4.125,-1620.396539787798
826,4.13,-2401.3484925441835
827,4.135,-2088.775073035742
828,4.14,-1586.8340356093415
829,4.1450000000000005,-1446.2938566569283
830,4.15,-1714.6049761851841
831,4.155,-2129.1167286142236
832,4.16,-2422.591006279304
833,4.165,-2503.4578799529545
834,4.17,-2439.3342360997067
835,4.175,-2338.9935528493097
836,4.18,-2262.8101422210766
837,4.1850000000000005,-2212.0418867130466
838,4.19,-2163.446756874657
839,4.195,-2099.231658296333
840,4.2,-2014.6294260195536
841,4.205,-1913.4091641486662
842,4.21,-1803.52877689558
843,4.215,-1695.0145926196265
844,4.22,-1597.1926165039108
845,4.225,-1514.729407876312
846,4.23,-1445.2273516954542
847,4.235,-1380.9505286748185
848,4.24,-1313.872771790297
849,4.245,-1240.0943858803012
850,4.25,-1160.3428539700749
851,4.255,-1077.2556999069116
852,4.26,-992.7678980161995
853,4.265,-907.403969236444
854,4.2700000000000005,-820.5099153191991
855,4.275,-730.2717072929597
856,4.28,-633.8528570962626
857,4.285,-528.1429107252808
858,4.29,-410.7087905766158
859,4.295,-280.63099012713303
860,4.3,-139.41960857764676
861,4.305,8.475475791120893
862,4.3100000000000005,156.6590101099596
863,4.315,299.00260091200283
864,4.32,431.1643381829126
865,4.325,550.5276041795224
866,4.33,655.9588467728951
867,4.335,748.6746666156351
868,4.34,833.2045055630215
869,4.345,916.4228001018013
870,4.3500000000000005,1003.9086132254771
871,4.355,1094.5107673165767
872,4.36,1175.3183174611524
873,4.365,1220.7661362761144
874,4.37,1199.3501131469866
875,4.375,1086.909318102121
876,4.38,879.4346812576788
877,4.385,597.2831102731228
878,4.39,278.16923216897567
879,4.3950000000000005,-36.82639274578855
880,4.4,-316.8528109795427
881,4.405,-548.2298384057983
882,4.41,-732.5427815589475
883,4.415,-879.0434063489031
884,4.42,-997.3795747189129
885,4.425,-1094.1682493082767
886,4.43,-1172.3260613075224
887,4.4350000000000005,-1231.2012876788403
888,4.44,-1267.935277014949
889,4.445,-1280.7375289969077
890,4.45,-1272.200277268991
891,4.455,-1249.9995143352585
892,4.46,-1224.50836245515
893,4.465,-1204.5288944553558
894,4.47,-1192.6943985957305
895,4.4750000000000005,-1183.2388582638305
896,4.48,-1165.2618606113788
897,4.485,-1130.7419642191096
898,4.49,-1081.154450500174
899,4.495,-1026.9441466489925
900,4.5,-980.698742051323
901,4.505,-949.8533786692201
902,4.51,-933.5686214463553
903,4.515,-924.6125651584406
904,4.5200000000000005,-914.5175805750271
905,4.525,-898.6932401067243
906,4.53,-877.892429204647
907,4.535,-855.4042833950933
908,4.54,-833.5727480547858
909,4.545,-813.4316739337062
910,4.55,-796.9625128633515
911,4.555,-788.3977856688407
912,4.5600000000000005,-792.5217346326295
913,4.565,-811.0829777779269
914,4.57,-839.7601824239407
915,4.575,-867.9924765976699
916,4.58,-882.9988715261676
917,4.585,-876.351498791508
918,4.59,-848.2752981251452
919,4.595,-806.114829821644
920,4.6000000000000005,-758.9636233026116
921,4.605,-713.6435461411863
922,4.61,-674.3995237866695
923,4.615,-644.2920939282469
924,4.62,-625.5317880085173
925,4.625,-618.1218376114668
926,4.63,-618.026846836844
927,4.635,-617.0096259867997
928,4.64,-606.0123023208952
929,4.6450000000000005,-581.1374321112309
930,4.65,-547.5982436574934
931,4.655,-517.4676676499903
932,4.66,-502.41215974000045
933,4.665,-506.85336601570157
934,4.67,-525.8114596223031
935,4.675,-547.7035967849648
936,4.68,-559.8218242436702
937,4.6850000000000005,-553.7117216159493
938,4.69,-528.3092918423383
939,4.695,-490.11552753343625
940,4.7,-450.72434796236996
941,4.705,-421.70721621141837
942,4.71,-407.10931829077094
943,4.715,-396.5939497018122
944,4.72,-364.7806913266138
945,4.7250000000000005,-279.93973582301754
946,4.73,-118.78376673665707
947,4.735,120.46209552512747
948,4.74,413.8235514753201
949,4.745,719.0384847619432
950,4.75,992.139951036377
951,4.755,1205.0180536810306
952,4.76,1353.2486846113295
953,4.765,1448.3798493530644
954,4.7700000000000005,1500.0395809380875
955,4.775,1501.7210301104824
956,4.78,1431.8433446115869
957,4.785,1270.2024455784415
958,4.79,1018.418956998469
959,4.795,709.7450540014104
960,4.8,400.3482818079328
961,4.805,146.13365453449984
962,4.8100000000000005,-21.717870156377856
963,4.815,-108.86732223414755
964,4.82,-151.52232144398587
965,4.825,-195.4960650760859
966,4.83,-271.4945560047388
967,4.835,-380.0176626435251
968,4.84,-495.52589294347996
969,4.845,-587.8892271872852
970,4.8500000000000005,-644.5800432624804
971,4.855,-673.3801053086719
972,4.86,-681.6715617745865
973,4.865,-653.3809267694498
974,4.87,-553.536592820772
975,4.875,-370.8777643006402
976,4.88,-173.43701318128146
977,4.885,-123.8493590952975
978,4.89,-401.3101902852579
979,4.8950000000000005,-1024.3345852156308
980,4.9,-1662.548148877325
981,4.905,-1608.8839866191906
982,4.91,-50.82177384231713
983,4.915,3414.9086202629
984,4.92,8320.337560520322
985,4.925,13283.279959486306
986,4.93,16532.131236830126
987,4.9350000000000005,16764.039179965548
988,4.94,13836.839201758014
989,4.945,8862.091803338139
990,4.95,3633.1854336045017
991,4.955,-265.7915051954278
992,4.96,-2147.97016463958
993,4.965,-2347.72346332582
994,4.97,-1791.1434262047273
995,4.9750000000000005,-1350.7080521120438
996,4.98,-1402.112703025619
997,4.985,-1803.7488400822767
998,4.99,-2201.2923196672987
999,4.995,-2360.47379784973
1000,5.0,-2288.140726902145
1001,5.005,-2130.0679248100705
1002,5.01,-2009.0001131275494
1003,5.015,-1951.6885683843443
1004,5.0200000000000005,-1920.590351303012
1005,5.025,-1874.990441578351
1006,5.03,-1800.724089068131
1007,5.035,-1705.243943406459
1008,5.04,-1602.487160271309
1009,5.045,-1503.2790670933805
1010,5.05,-1412.5275746235154
1011,5.055,-1330.0908294924125
1012,5.0600000000000005,-1253.3220530769831
1013,5.065,-1179.9773364163832
1014,5.07,-1109.973218781215
1015,5.075,-1044.7956133187497
1016,5.08,-985.2129740070816
1017,5.085,-930.0006832353729
1018,5.09,-877.1568083029623
1019,5.095,-825.2936978725292
1020,5.1000000000000005,-772.6588119451434
1021,5.105,-715.5892749807473
1022,5.11,-649.6789131170938
1023,5.115,-572.5675807202359
1024,5.12,-484.35097687674954
1025,5.125,-384.91335233134384
1026,5.13,-271.4655949364218
1027,5.135,-138.77206932183554
1028,5.14,18.203122103226093
1029,5.1450000000000005,200.34370087570028
1030,5.15,400.75070914305195
1031,5.155,604.5986530736749
1032,5.16,794.9048264313859
1033,5.165,961.8194049351116
1034,5.17,1108.6802000782338
1035,5.175,1249.383578435331
1036,5.18,1397.6663637814902
1037,5.1850000000000005,1554.5254679817428
1038,5.19,1701.590481069997
1039,5.195,1805.1709486234415
1040,5.2,1829.3528229136846
1041,5.205,1750.751789376447
1042,5.21,1566.9515390903034
1043,5.215,1295.6640205452463
1044,5.22,967.2649926120173
1045,5.2250000000000005,615.2733244910892
1046,5.23,268.4562725254425
1047,5.235,-53.00337045952471
1048,5.24,-336.8009319289343
1049,5.245,-575.7653401426716
1050,5.25,-766.5873215833425
1051,5.255,-910.6077015074655
1052,5.26,-1013.9885687264102
1053,5.265,-1085.4216749583513
1054,5.2700000000000005,-1132.8647657797003
1055,5.275,-1161.751142052865
1056,5.28,-1175.0931653424475
1057,5.285,-1174.4067120818777
1058,5.29,-1160.8061054878804
1059,5.295,-1136.1002417620498
1060,5.3,-1103.4259715750434
1061,5.305,-1067.0363139700275
1062,5.3100000000000005,-1031.4843862936827
1063,5.315,-1000.56649381279
1064,5.32,-976.2090109838784
1065,5.325,-957.9146607323855
1066,5.33,-943.6207894848685
1067,5.335,-931.5846750451626
1068,5.34,-921.5106436728121
1069,5.345,-913.9546854455798
1070,5.3500000000000005,-909.2562277168241
1071,5.355,-907.5902378265159
1072,5.36,-909.7400938803647
1073,5.365,-917.0526141612515
1074,5.37,-930.411085444268
1075,5.375,-949.5367528194841
1076,5.38,-973.2203976495352
1077,5.385,-999.6484766448076
1078,5.39,-1026.2063339082
1079,5.3950000000000005,-1049.4012265100826
1080,5.4,-1065.6969916177882
1081,5.405,-1072.9847664673928
1082,5.41,-1071.685368683957
1083,5.415,-1064.6564011679136
1084,5.42,-1055.684338578247
1085,5.425,-1047.2325502516803
1086,5.43,-1038.950039948038
1087,5.4350000000000005,-1028.116187976399
1088,5.44,-1011.6386993399093
1089,5.445,-988.2175842713474
1090,5.45,-959.7197726251432
1091,5.455,-931.2246029088024
1092,5.46,-908.9986639557759
1093,5.465,-896.7376218262341
1094,5.47,-892.9296943969698
1095,5.4750000000000005,-892.3091844627243
1096,5.48,-890.2642711259185
1097,5.485,-885.6111256681756
1098,5.49,-879.3377023981948
1099,5.495,-871.7727558197994
1100,5.5,-861.6068048425548
1101,5.505,-847.050520612071
1102,5.51,-827.2699469867705
1103,5.515,-802.9326452200233
1104,5.5200000000000005,-775.72809517221
1105,5.525,-747.0758103911948
1106,5.53,-717.1039901849584
1107,5.535,-685.4987884419977
1108,5.54,-653.8008904529926
1109,5.545,-625.8194956212383
1110,5.55,-603.6137197908557
1111,5.555,-581.2414774840524
1112,5.5600000000000005,-541.7722535261905
1113,5.565,-461.17682936542883
1114,5.57,-318.03567146023795
1115,5.575,-104.62045621060146
1116,5.58,165.9816606679596
1117,5.585,460.830662937237
1118,5.59,737.1183197658821
1119,5.595,957.5376679403678
1120,5.6000000000000005,1103.5132623116133
1121,5.605,1178.26505254281
1122,5.61,1196.4605909290945
1123,5.615,1166.5370923536334
1124,5.62,1079.8489881118905
1125,5.625,918.3348938574172
1126,5.63,677.0167531933557
1127,5.635,382.34003215824987
1128,5.64,88.91994328033144
1129,5.6450000000000005,-145.1403673654006
1130,5.65,-288.1355942047725
1131,5.655,-351.2310554673318
1132,5.66,-381.28459889451574
1133,5.665,-432.36682608461325
1134,5.67,-531.5389234016347
1135,5.675,-661.5709934249583
1136,5.68,-775.0950815893314
1137,5.6850000000000005,-831.8708162796293
1138,5.69,-829.7538906154987
1139,5.695,-801.2392550544276
1140,5.7,-775.8656640232348
1141,5.705,-742.4926371729329
1142,5.71,-652.3129470144886
1143,5.715,-473.6293186353411
1144,5.72,-264.74140850951346
1145,5.7250000000000005,-200.6309193985789
1146,5.73,-491.72843835070034
1147,5.735,-1186.792577454768
1148,5.74,-1958.3048919062537
1149,5.745,-2062.9562199380484
1150,5.75,-630.9138989256628
1151,5.755,2782.6854225210873
1152,5.76,7712.563373291416
1153,5.765,12751.959584698867
1154,5.7700000000000005,16108.919186145511
1155,5.775,16480.333964941252
1156,5.78,13728.148460980994
1157,5.785,8945.217603442628
1158,5.79,3876.905387053882
1159,5.795,54.85002349662852
1160,5.8,-1853.121267783184
1161,5.805,-2146.590965281338
1162,5.8100000000000005,-1680.0397863176327
1163,5.815,-1265.7131795819769
1164,5.82,-1275.1175252153055
1165,5.825,-1619.7497455191342
1166,5.83,-2008.0515131185343
1167,5.835,-2223.607634122546
1168,5.84,-2234.682219371609
1169,5.845,-2129.603031827359
1170,5.8500000000000005,-2001.139331350002
1171,5.855,-1888.9755222955832
1172,5.86,-1793.1572505778736
1173,5.865,-1706.8617687668748
1174,5.87,-1628.0830522883089
1175,5.875,-1552.7325788784729
1176,5.88,-1470.2474893406018
1177,5.885,-1369.9200346247826
1178,5.89,-1249.9258830505253
1179,5.8950000000000005,-1119.8756692366476
1180,5.9,-995.7651640433388
1181,5.905,-891.7170854027793
1182,5.91,-813.4428448329837
1183,5.915,-756.7360877942758
1184,5.92,-711.3379477502499
1185,5.925,-666.8108800640347
1186,5.93,-615.9848690985793
1187,5.9350000000000005,-554.850827740494
1188,5.94,-481.5807481298909
1189,5.945,-396.9448841371898
1190,5.95,-305.0163990619606
1191,5.955,-211.7472032786824
1192,5.96,-121.26974561313735
1193,5.965,-32.41349657348324
1194,5.97,61.823847007511716
1195,5.9750000000000005,170.90081284016637
1196,5.98,300.98287200445526
1197,5.985,450.3656344569694
1198,5.99,609.5087621119695
1199,5.995,766.0554365046268
1200,6.0,911.4358943124208
1201,6.005,1044.707652191628
1202,6.01,1171.6884262205003
1203,6.015000000000001,1300.3621031343423
1204,6.0200000000000005,1434.8599399145455
1205,6.025,1570.4785189802233
1206,6.03,1691.8151461589669
1207,6.035,1774.8350938903693
1208,6.04,1792.1810153361505
1209,6.045,1720.65560167215
1210,6.05,1549.6288800004545
1211,6.055,1287.2550909303905
1212,6.0600000000000005,959.8975797037721
1213,6.065,603.3384316989333
1214,6.07,250.77500053606786
1215,6.075,-74.92325481754233
1216,6.08,-361.6234452654211
1217,6.085,-603.7839744507472
1218,6.09,-798.3581851652577
1219,6.095,-943.6571467207858
1220,6.1000000000000005,-1041.3703918620201
1221,6.105,-1099.09242573557
1222,6.11,-1129.4668338731112
1223,6.115,-1144.8931675250726
1224,6.12,-1151.6318880699948
1225,6.125,-1148.2407418812134
1226,6.13,-1129.1390860512095
1227,6.135,-1090.0402149882245
1228,6.140000000000001,-1032.0418516250677
1229,6.1450000000000005,-963.1074878806321
1230,6.15,-896.4709580098321
1231,6.155,-846.0255218698651
1232,6.16,-820.3324797852138
1233,6.165,-818.1204963556003
1234,6.17,-827.7717850215203
1235,6.175,-831.9555160460269
1236,6.18,-816.4149097966874
1237,6.1850000000000005,-778.5230807154023
1238,6.19,-729.237522911512
1239,6.195,-685.8611731061856
1240,6.2,-660.9336189471052
1241,6.205,-656.0412181757281
1242,6.21,-664.0315837803735
1243,6.215,-675.7503402232275
1244,6.22,-685.8039705474494
1245,6.2250000000000005,-694.6178579850676
1246,6.23,-706.2621469793111
1247,6.235,-723.2937417224232
1248,6.24,-742.5051038655631
1249,6.245,-755.6453532468743
1250,6.25,-754.6134501917902
1251,6.255,-736.3420137347445
1252,6.26,-704.0414157191775
1253,6.265000000000001,-665.6806002139631
1254,6.2700000000000005,-631.4445865883531
1255,6.275,-610.2595439399801
1256,6.28,-605.9573622112425
1257,6.285,-615.4549840767942
1258,6.29,-630.4567696094217
1259,6.295,-641.4504511764611
1260,6.3,-641.7274581777482
1261,6.305,-629.776142722761
1262,6.3100000000000005,-608.9760712194826
1263,6.315,-584.8540575809197
1264,6.32,-562.3129567757369
1265,6.325,-544.9794625531849
1266,6.33,-535.4483085985813
1267,6.335,-533.7881661817038
1268,6.34,-535.0940784648203
1269,6.345,-530.0334492936722
1270,6.3500000000000005,-509.93646369873255
1271,6.355,-472.98053816860346
1272,6.36,-426.58168747274397
1273,6.365,-383.810879309446
1274,6.37,-355.16913550667215
1275,6.375,-339.9067394465424
1276,6.38,-322.5142362057749
1277,6.385,-277.75351270828196
1278,6.390000000000001,-181.85767511503212
1279,6.3950000000000005,-23.442289726296863
1280,6.4,191.07931192837123
1281,6.405,438.9897822094774
1282,6.41,688.6910807284781
1283,6.415,910.3434701901051
1284,6.42,1084.4891835260141
1285,6.425,1203.19570953904
1286,6.43,1263.320846392359
1287,6.4350000000000005,1258.2575803600612
1288,6.44,1176.1957613621762
1289,6.445,1007.8236893300377
1290,6.45,758.8104629417692
1291,6.455,457.71321468727876
1292,6.46,151.4229430388737
1293,6.465,-111.9292000744505
1294,6.47,-303.16932572541367
1295,6.4750000000000005,-422.6081088506157
1296,6.48,-494.5956130390549
1297,6.485,-550.5239482747033
1298,6.49,-610.926814469266
1299,6.495,-676.4576221890234
1300,6.5,-732.5259060961112
1301,6.505,-764.8512291364414
1302,6.51,-774.2978297576432
1303,6.515000000000001,-776.1991203181833
1304,6.5200000000000005,-780.4295793927115
1305,6.525,-768.843497259925
1306,6.53,-696.9452100757934
1307,6.535,-532.7952449806847
1308,6.54,-315.2170748256714
1309,6.545,-185.18752871993345
1310,6.55,-337.4067556130609
1311,6.555,-870.124555665326
1312,6.5600000000000005,-1588.3458111246478
1313,6.565,-1905.3060035222622
1314,6.57,-1001.4441135454763
1315,6.575,1735.1163243778128
1316,6.58,6196.6594798699525
1317,6.585,11329.988651897705
1318,6.59,15446.20288048579
1319,6.595,16980.296445544205
1320,6.6000000000000005,15286.038840097968
1321,6.605,10985.818730859239
1322,6.61,5656.451133740265
1323,6.615,1039.8477955505628
1324,6.62,-1757.6818146952198
1325,6.625,-2640.773439397931
1326,6.63,-2324.5452425976005
1327,6.635,-1757.4884058212392
1328,6.640000000000001,-1563.274436828354
1329,6.6450000000000005,-1825.3257024499771
1330,6.65,-2260.5469265703277
1331,6.655,-2558.8875281744067
1332,6.66,-2607.34734977927
1333,6.665,-2484.565402187891
1334,6.67,-2322.0496147471963
1335,6.675,-2193.1182752072937
1336,6.68,-2099.9870865250878
1337,6.6850000000000005,-2018.4639482794332
1338,6.69,-1934.4023538422848
1339,6.695,-1849.0044510429655
1340,6.7,-1768.1036906416375
1341,6.705,-1693.213008258281
1342,6.71,-1619.6009293857103
1343,6.715,-1539.8830947329047
1344,6.72,-1450.2059353447094
1345,6.7250000000000005,-1354.6390076033085
1346,6.73,-1263.5982301003266
1347,6.735,-1186.515330244214
1348,6.74,-1124.359077009201
1349,6.745,-1068.4413598354076
1350,6.75,-1006.7340560966671
1351,6.755,-932.3704694972612
1352,6.76,-847.612168669576
1353,6.765000000000001,-761.3202916287149
1354,6.7700000000000005,-682.9691704240311
1355,6.775,-616.719263588083
1356,6.78,-557.5070521522075
1357,6.785,-491.2454115268627
1358,6.79,-400.6737827365412
1359,6.795,-274.17489413214616
1360,6.8,-111.53801533481196
1361,6.805,76.2813422720419
1362,6.8100000000000005,270.92497423688974
1363,6.815,451.26362012049236
1364,6.82,599.6068573126641
1365,6.825,709.4705272336146
1366,6.83,790.2174720902754
1367,6.835,863.1602756812083
1368,6.84,949.5859973401926
1369,6.845,1057.450193682803
1370,6.8500000000000005,1174.447238324354
1371,6.855,1271.2045994268362
1372,6.86,1312.7104935555408
1373,6.865,1271.8001655616856
1374,6.87,1138.2512871416634
1375,6.875,920.8147901114856
1376,6.88,643.3944917145111
1377,6.885,337.4877576519066
1378,6.890000000000001,32.88300572556878
1379,6.8950000000000005,-249.95041672970802
1380,6.9,-501.7546849817618
1381,6.905,-720.1769767634044
1382,6.91,-903.7116516087127
1383,6.915,-1048.9882797755747
1384,6.92,-1152.5573268300873
1385,6.925,-1214.6268847071228
1386,6.93,-1241.6307347484558
1387,6.9350000000000005,-1245.769166331361
1388,6.94,-1241.2470082172863
1389,6.945,-1238.8121977807095
1390,6.95,-1241.6734983751765
1391,6.955,-1245.3439946135416
1392,6.96,-1241.4374344837365
1393,6.965,-1223.0284905951983
1394,6.97,-1188.5679659597977
1395,6.9750000000000005,-1142.4527891215253
1396,6.98,-1092.3453954153774
1397,6.985,-1045.2593656163547
1398,6.99,-1004.9856089001667
1399,6.995,-971.9812978958554
1400,7.0,-944.777710943718
1401,7.005,-921.3920331829021
1402,7.01,-900.1454861558512
1403,7.015000000000001,-879.9334093096863
1404,7.0200000000000005,-859.9222996191775
1405,7.025,-839.0410522437679
1406,7.03,-816.3396428334268
1407,7.035,-792.5450205489267
1408,7.04,-771.1319589601273
1409,7.045,-756.8846228400913
1410,7.05,-752.5100347792693
1411,7.055,-756.3449663676975
1412,7.0600000000000005,-763.2930649426448
1413,7.065,-767.9544399465418
1414,7.07,-767.1805185291806
1415,7.075,-760.3494474073783
1416,7.08,-747.73558959772
1417,7.085,-728.6502338899202
1418,7.09,-701.1358886123924
1419,7.095,-663.8421570916988
1420,7.1000000000000005,-618.7312709661487
1421,7.105,-572.1896342588229
1422,7.11,-533.295057790789
1423,7.115,-510.12159421774265
1424,7.12,-505.87200220219717
1425,7.125,-516.4416592765645
1426,7.13,-530.9467519286247
1427,7.135,-535.9793316601006
1428,7.140000000000001,-521.8444139764034
1429,7.1450000000000005,-486.9809745759113
1430,7.15,-438.0298660323453
1431,7.155,-386.3263477783229
1432,7.16,-343.3448291282434
1433,7.165,-317.06472182003995
1434,7.17,-310.171358127724
1435,7.175,-320.02557746468955
1436,7.18,-339.2389920490507
1437,7.1850000000000005,-355.77150238026087
1438,7.19,-353.2353602195732
1439,7.195,-313.03771767678654
1440,7.2,-218.5175072051323
1441,7.205,-59.838795705431025
1442,7.21,161.09616168723386
1443,7.215,426.7900323930638
1444,7.22,704.9369104122788
1445,7.2250000000000005,957.246351987751
1446,7.23,1153.3771174694089
1447,7.235,1280.6623957812733
1448,7.24,1342.2867164513393
1449,7.245,1345.7246393926955
1450,7.25,1290.8071293328992
1451,7.255,1167.3329787550006
1452,7.26,966.0816136818712
1453,7.265000000000001,696.7642488322717
1454,7.2700000000000005,397.7423459066557
1455,7.275,124.9325988407511
1456,7.28,-76.56658663735044
1457,7.285,-198.3487055355986
1458,7.29,-272.1854495740247
1459,7.295,-347.59605908350215
1460,7.3,-458.30912993376813
1461,7.305,-600.012660655672
1462,7.3100000000000005,-735.6583091931209
1463,7.315,-826.8741283820087
1464,7.32,-867.897711580413
1465,7.325,-889.8741546821997
1466,7.33,-925.3630004934153
1467,7.335,-963.1043916423034
1468,7.34,-941.0317909308336
1469,7.345,-798.3396267417886
1470,7.3500000000000005,-558.2400740035379
1471,7.355,-378.8240995013566
1472,7.36,-505.1053595961054
1473,7.365,-1090.921046960732
1474,7.37,-1952.5643839411412
1475,7.375,-2434.7659812494103
1476,7.38,-1592.7891384290533
1477,7.385,1282.3740011563953
1478,7.390000000000001,6065.8501681398675
1479,7.3950000000000005,11561.649942777844
1480,7.4,15896.81831367565
1481,7.405,17403.56369221523
1482,7.41,15484.09001979929
1483,7.415,10924.140480077385
1484,7.42,5462.284688782371
1485,7.425,893.0201256515741
1486,7.43,-1751.4374655381612
1487,7.4350000000000005,-2500.054321154504
1488,7.44,-2144.0768617155964
1489,7.445,-1617.883068965402
1490,7.45,-1475.673485116448
1491,7.455,-1745.3020763488485
1492,7.46,-2144.2543817988126
1493,7.465,-2405.8905375468444
1494,7.47,-2457.603698819611
1495,7.4750000000000005,-2382.9304770804024
1496,7.48,-2286.6609060626574
1497,7.485,-2209.653092445229
1498,7.49,-2137.060500218321
1499,7.495,-2047.3924797524235
1500,7.5,-1940.955347823623
1501,7.505,-1833.609060723872
1502,7.51,-1737.9784031531194
1503,7.515000000000001,-1654.0515868253633
1504,7.5200000000000005,-1573.2258456726786
1505,7.525,-1487.6614214367432
1506,7.53,-1396.3936043476708
1507,7.535,-1305.086362303217
1508,7.54,-1221.1375290581132
1509,7.545,-1147.8974048098762
1510,7.55,-1081.6692227026413
1511,7.555,-1013.4972540284467
1512,7.5600000000000005,-934.7256598663053
1513,7.565,-842.5115784898464
1514,7.57,-741.4668585101507
1515,7.575,-640.6659346040062
1516,7.58,-548.4106920584234
1517,7.585,-467.82557962332845
1518,7.59,-395.21585392386964
1519,7.595,-321.79656996151255
1520,7.6000000000000005,-237.90531064130482
1521,7.605,-137.0913084911545
1522,7.61,-17.282675651418497
1523,7.615,121.22341022560619
1524,7.62,278.16819015388774
1525,7.625,453.3022337608659
1526,7.63,644.0775610007795
1527,7.635,843.8000257016818
1528,7.640000000000001,1042.536804595443
1529,7.6450000000000005,1230.4011566024444
1530,7.65,1400.4580887939858
1531,7.655,1548.307455761672
1532,7.66,1667.9363533600042
1533,7.665,1747.2482255185348
1534,7.67,1768.2366274723486
1535,7.675,1713.4963664684383
1536,7.68,1575.0362215764094
1537,7.6850000000000005,1358.9617439927656
1538,7.69,1083.0228688528387
1539,7.695,769.6152957796746
1540,7.7,439.5327290506103
1541,7.705,110.16445120072827
1542,7.71,-202.27504892536587
1543,7.715,-480.6071407821452
1544,7.72,-708.8666966868229
1545,7.7250000000000005,-878.4693125206878
1546,7.73,-992.937437400083
1547,7.735,-1066.053998771318
1548,7.74,-1114.0754968747951
1549,7.745,-1147.497187979159
1550,7.75,-1167.4742352782068
1551,7.755,-1168.4833026193187
1552,7.76,-1145.4687501183523
1553,7.765000000000001,-1100.9767172310867
1554,7.7700000000000005,-1046.6466514886893
1555,7.775,-996.8661178305802
1556,7.78,-959.3127427744032
1557,7.785,-930.4805504793312
1558,7.79,-899.8331410958581
1559,7.795,-858.6578643221737
1560,7.8,-806.4688336053086
1561,7.805000000000001,-750.530856348674
1562,7.8100000000000005,-699.3555523316671
1563,7.815,-655.5594244909878
1564,7.82,-614.5341294376293
1565,7.825,-570.6633161187922
1566,7.83,-525.141171837797
1567,7.835,-487.242488696739
1568,7.84,-467.6601185207491
1569,7.845,-470.29195732068393
1570,7.8500000000000005,-489.04280415665755
1571,7.855,-511.01977381833615
1572,7.86,-523.6235348695451
1573,7.865,-521.475838926083
1574,7.87,-508.56762992362485
1575,7.875,-493.5292154566626
1576,7.88,-481.73670483604127
1577,7.885,-471.09623085827934
1578,7.890000000000001,-454.62292791556115
1579,7.8950000000000005,-426.9255710249839
1580,7.9,-389.61959890034956
1581,7.905,-352.1292338015617
1582,7.91,-326.6879698052405
1583,7.915,-320.15044203309805
1584,7.92,-329.02483436284183
1585,7.925,-342.27829404342947
1586,7.930000000000001,-349.03070547179885
1587,7.9350000000000005,-344.23361691919706
1588,7.94,-329.4456391088102
1589,7.945,-310.86639599324127
1590,7.95,-296.53417676590385
1591,7.955,-292.8062322865927
1592,7.96,-301.4393643458486
1593,7.965,-319.45594447310054
1594,7.97,-341.31218101491436
1595,7.9750000000000005,-360.6897386836996
1596,7.98,-371.14930537048957
1597,7.985,-367.4073403758444
1598,7.99,-348.02470485057194
1599,7.995,-317.8208676047787
1600,8.0,-287.82175641573457
1601,8.005,-271.6113844188654
1602,8.01,-278.36863632212396
1603,8.015,-305.3078979901301
1604,8.02,-334.57324830149605
1605,8.025,-337.98301245771063
1606,8.03,-287.256292326282
1607,8.035,-163.64804655787862
1608,8.040000000000001,36.53512098450156
1609,8.045,299.6983985390437
1610,8.05,595.3045681915925
1611,8.055,881.1553167915397
1612,8.06,1115.2505066392207
1613,8.065,1270.2252367868414
1614,8.07,1341.8846192778074
1615,8.075,1345.4138384833757
1616,8.08,1300.6750663754879
1617,8.085,1216.2706632552456
1618,8.09,1084.4005455248675
1619,8.095,891.5483078860458
1620,8.1,637.5903119786176
1621,8.105,348.2194453347579
1622,8.11,69.7945540410614
1623,8.115,-151.56366313544532
1624,8.120000000000001,-293.73801783969094
1625,8.125,-370.02996842284716
1626,8.13,-419.94053296350955
1627,8.135,-483.7164409053833
1628,8.14,-577.0677101506014
1629,8.145,-684.527640961719
1630,8.15,-776.5765634120959
1631,8.155,-835.0101228310435
1632,8.16,-862.4269428734327
1633,8.165000000000001,-866.6521325130218
1634,8.17,-837.5037325678605
1635,8.175,-745.7322838874545
1636,8.18,-578.4006027122633
1637,8.185,-391.5676371278975
1638,8.19,-332.17613994503097
1639,8.195,-577.2748104524626
1640,8.2,-1177.0685303001271
1641,8.205,-1870.5411217167944
1642,8.21,-2024.8509425939053
1643,8.215,-842.0642370338695
1644,8.22,2179.2046835447677
1645,8.225,6768.778669365402
1646,8.23,11747.353023190495
1647,8.235,15424.31519814613
1648,8.24,16381.92582148582
1649,8.245000000000001,14205.592712056441
1650,8.25,9713.712933304943
1651,8.255,4539.552308827056
1652,8.26,316.8628124799892
1653,8.265,-2052.1931617310483
1654,8.27,-2653.7617125646484
1655,8.275,-2268.942058569327
1656,8.28,-1785.803374997473
1657,8.285,-1708.7132303278258
1658,8.290000000000001,-2031.208548988484
1659,8.295,-2455.657695251459
1660,8.3,-2715.4968449775147
1661,8.305,-2747.5270158420262
1662,8.31,-2646.4876116887594
1663,8.315,-2522.8614272076006
1664,8.32,-2416.56375357071
1665,8.325,-2311.3222246376417
1666,8.33,-2189.2922203452736
1667,8.335,-2057.36322586498
1668,8.34,-1934.183489231521
1669,8.345,-1828.4562703422216
1670,8.35,-1733.0348071622652
1671,8.355,-1634.0092180157449
1672,8.36,-1522.211086616995
1673,8.365,-1399.1919210249425
1674,8.370000000000001,-1276.490125490132
1675,8.375,-1169.2788705971893
1676,8.38,-1087.3278327080736
1677,8.385,-1029.1947392330749
1678,8.39,-984.4072784558165
1679,8.395,-941.2663641248171
1680,8.4,-892.5143098798342
1681,8.405,-834.6229721662006
1682,8.41,-764.393249602894
1683,8.415000000000001,-678.7076630690447
1684,8.42,-577.8339360557164
1685,8.425,-467.58955584443726
1686,8.43,-356.83749377002965
1687,8.435,-251.5336321581599
1688,8.44,-149.6554389989567
1689,8.445,-41.203741326822595
1690,8.45,85.4499196732784
1691,8.455,234.5026712388282
1692,8.46,398.00923368916335
1693,8.465,560.0884660172774
1694,8.47,707.4497429592877
1695,8.475,838.6074677131189
1696,8.48,965.0807310246478
1697,8.485,1102.6662495998708
1698,8.49,1256.8963789234972
1699,8.495000000000001,1411.925938833371
1700,8.5,1531.6786434635667
1701,8.505,1573.9364417051684
1702,8.51,1508.789351011373
1703,8.515,1330.9947877379527
1704,8.52,1061.165065158285
1705,8.525,736.9878426467537
1706,8.53,399.3740431548693
1707,8.535,79.80301989101295
1708,8.540000000000001,-205.87862270717548
1709,8.545,-455.5793840709427
1710,8.55,-673.6277888711292
1711,8.555,-862.7986189114365
1712,8.56,-1020.0956743160541
1713,8.565,-1138.380445591507
1714,8.57,-1212.3375302391544
1715,8.575000000000001,-1244.069454267753
1716,8.58,-1243.79393931747
1717,8.585,-1225.204439610803
1718,8.59,-1199.186335284688
1719,8.595,-1169.9405407478926
1720,8.6,-1135.051256480539
1721,8.605,-1088.935765049163
1722,8.61,-1028.1223849829196
1723,8.615,-955.6692473351575
1724,8.620000000000001,-881.6021502746135
1725,8.625,-818.5718976107975
1726,8.63,-775.7344973916315
1727,8.635,-755.0546475101532
1728,8.64,-751.6550451773219
1729,8.645,-756.8219072095462
1730,8.65,-761.6577524408007
1731,8.655,-760.1797407424074
1732,8.66,-751.0176253842346
1733,8.665000000000001,-737.0471493278072
1734,8.67,-723.223628432467
1735,8.675,-713.9009969154746
1736,8.68,-710.9414467493905
1737,8.685,-713.2009858247069
1738,8.69,-717.3352697648645
1739,8.695,-719.3990981774068
1740,8.700000000000001,-716.3957565043588
1741,8.705,-707.1872110635064
1742,8.71,-692.7870037513454
1743,8.715,-676.0639010160484
1744,8.72,-660.4510149761952
1745,8.725,-647.8213184375146
1746,8.73,-637.1510802923979
1747,8.735,-625.5764170299614
1748,8.74,-611.0979968420567
1749,8.745000000000001,-594.3122997242042
1750,8.75,-577.6924528512297
1751,8.755,-563.4829039226631
1752,8.76,-552.0994899157303
1753,8.765,-542.0073200776428
1754,8.77,-531.217744595836
1755,8.775,-519.7530657257361
1756,8.78,-510.96316071693667
1757,8.785,-509.34253977042187
1758,8.790000000000001,-515.5798258730957
1759,8.795,-523.3712037577083
1760,8.8,-521.9777445064204
1761,8.805,-503.35613600866236
1762,8.81,-468.363806768226
1763,8.815,-427.19717705096934
1764,8.82,-393.62692759066255
1765,8.825000000000001,-377.00323687545887
1766,8.83,-377.5464911024142
1767,8.835,-387.8472510428852
1768,8.84,-398.4634379118705
1769,8.845,-402.80116347569214
1770,8.85,-398.7467987742945
1771,8.855,-388.0962237831323
1772,8.86,-374.9194932590343
1773,8.865,-362.20404404530024
1774,8.870000000000001,-347.1658095648306
1775,8.875,-318.5143613882965
1776,8.88,-258.49493882717655
1777,8.885,-148.8027563464886
1778,8.89,22.217159160418376
1779,8.895,252.60806274211944
1780,8.9,522.3587118685871
1781,8.905,795.9595949242776
1782,8.91,1033.9011921740334
1783,8.915000000000001,1207.4146263943571
1784,8.92,1306.420113552172
1785,8.925,1335.2461058914462
1786,8.93,1299.9992998028354
1787,8.935,1197.915147872366
1788,8.94,1018.464605489602
1789,8.945,757.7418782844211
1790,8.950000000000001,435.64136085445534
1791,8.955,99.80418668130997
1792,8.96,-190.86231342541663
1793,8.965,-393.74320852321955
1794,8.97,-503.14901170225045
1795,8.975,-551.2786020937318
1796,8.98,-588.5402326084618
1797,8.985,-653.2086749904565
1798,8.99,-748.3414397380268
1799,8.995000000000001,-843.5436225515602
1800,9.0,-903.3360286825127
1801,9.005,-919.260385533426
1802,9.01,-914.0065046143515
1803,9.015,-909.5705353919819
1804,9.02,-889.6372531794443
1805,9.025,-799.7446920108539
1806,9.03,-601.0030966225921
1807,9.035,-346.6172417296495
1808,9.040000000000001,-216.8528513473872
1809,9.045,-446.55217962848565
1810,9.05,-1128.1898024862458
1811,9.055,-1979.895529906779
1812,9.06,-2273.09912869554
1813,9.065,-1092.9751733909616
1814,9.07,2108.64954131162
1815,9.075000000000001,6986.579388337216
1816,9.08,12207.835669796346
1817,9.085,15958.434336244278
1818,9.09,16811.79594884517
1819,9.095,14454.108578421126
1820,9.1,9835.386496343952
1821,9.105,4664.566413843903
1822,9.11,556.5506368160952
1823,9.115,-1674.1315320814226
1824,9.120000000000001,-2202.7169913381276
1825,9.125,-1839.2569762609746
1826,9.13,-1429.17536956704
1827,9.135,-1407.513085880892
1828,9.14,-1730.8768699446473
1829,9.145,-2117.2557677191166
1830,9.15,-2338.677113175121
1831,9.155,-2353.407413440192
1832,9.16,-2251.1665587599373
1833,9.165000000000001,-2131.3821942386476
1834,9.17,-2034.920076809412
1835,9.175,-1954.1838003914118
1836,9.18,-1872.195246116809
1837,9.185,-1783.1049537297217
1838,9.19,-1688.5291169888355
1839,9.195,-1589.122898009981
1840,9.200000000000001,-1484.0371172633056
1841,9.205,-1375.0533817449627
1842,9.21,-1267.780330442185
1843,9.215,-1168.3501392382484
1844,9.22,-1079.411797707943
1845,9.225,-998.7833545046368
1846,9.23,-921.0761285495041
1847,9.235,-840.8248844190667
1848,9.24,-755.349495584911
1849,9.245000000000001,-665.6849077319769
1850,9.25,-574.8760592800176
1851,9.255,-485.03358085273885
1852,9.26,-395.86654113986765
1853,9.265,-305.99039867863576
1854,9.27,-215.420364556972
1855,9.275,-126.47760992629426
1856,9.28,-41.84481995059744
1857,9.285,39.08133296056536
1858,9.290000000000001,122.80353064145389
1859,9.295,220.46365894138634
1860,9.3,341.94990059668976
1861,9.305,488.5521338183174
1862,9.31,649.9124311440427
1863,9.315,808.6789561864096
1864,9.32,950.2832014310765
1865,9.325000000000001,1071.1288464194085
1866,9.33,1179.6732890928185
1867,9.335,1289.5840258323144
1868,9.34,1408.6635920423394
1869,9.345,1529.687142824279
1870,9.35,1628.9277191582378
1871,9.355,1674.187434378252
1872,9.36,1638.0764745770855
1873,9.365,1508.7740373061097
1874,9.370000000000001,1292.8514757317016
1875,9.375,1010.5504127318701
1876,9.38,688.0321918363521
1877,9.385,351.17675635158344
1878,9.39,22.74224823013098
1879,9.395,-278.4188381827772
1880,9.4,-538.4714682849678
1881,9.405,-750.5075722868664
1882,9.41,-915.0671201046459
1883,9.415000000000001,-1037.4434649104626
1884,9.42,-1123.3961111202818
1885,9.425,-1176.892551641369
1886,9.43,-1201.218858391464
1887,9.435,-1201.3836985345424
1888,9.44,-1185.2783773791384
1889,9.445,-1162.6873694638873
1890,9.450000000000001,-1142.2122315584224
1891,9.455,-1127.0511444545841
1892,9.46,-1112.5660354594017
1893,9.465,-1088.992378953619
1894,9.47,-1048.8638360574532
1895,9.475,-993.9845433809854
1896,9.48,-936.4880334293975
1897,9.485,-892.7497387996505
1898,9.49,-873.596873573055
1899,9.495000000000001,-876.9181148312201
1900,9.5,-888.3484802233413
1901,9.505,-890.7016123302046
1902,9.51,-875.50238151759
1903,9.515,-847.730755414213
1904,9.52,-821.0317240540584
1905,9.525,-808.4708179608494
1906,9.53,-815.6774341209955
1907,9.535,-839.657472387609
1908,9.540000000000001,-872.5612461126384
1909,9.545,-906.9148610617411
1910,9.55,-937.8475096103551
1911,9.555,-960.8908820085062
1912,9.56,-969.4571918339765
1913,9.565,-957.1466342972972
1914,9.57,-923.9066994915402
1915,9.575000000000001,-879.2196568485393
1916,9.58,-837.7677559448047
1917,9.585,-810.5790375523462
1918,9.59,-798.6120868585641
1919,9.595,-793.1826509702362
1920,9.6,-782.6778619169784
1921,9.605,-761.098379822445
1922,9.61,-732.3369901372263
1923,9.615,-706.7138621182164
1924,9.620000000000001,-692.6258902669503
1925,9.625,-690.2211506314526
1926,9.63,-691.4868009771551
1927,9.635,-685.6823683191685
1928,9.64,-666.1652281876713
1929,9.645,-634.691441017239
1930,9.65,-600.4859440380785
1931,9.655,-574.1866010233153
1932,9.66,-560.691830598383
1933,9.665000000000001,-556.1239905230073
1934,9.67,-550.5499203381983
1935,9.675,-533.703594416787
1936,9.68,-500.193513938806
1937,9.685,-452.301790293059
1938,9.69,-399.12954983084836
1939,9.695,-351.39883078055124
1940,9.700000000000001,-314.0467710415716
1941,9.705,-281.4279062881214
1942,9.71,-238.26561840859287
1943,9.715,-165.0671442983483
1944,9.72,-44.99565385287825
1945,9.725,129.26726063480197
1946,9.73,349.87435648836754
1947,9.735,592.7302873614933
1948,9.74,824.3134142092591
1949,9.745000000000001,1014.790845764377
1950,9.75,1149.73634232396
1951,9.755,1231.745485083106
1952,9.76,1269.64106283259
1953,9.765,1263.1348606368813
1954,9.77,1196.5937556153854
1955,9.775,1049.8403798999805
1956,9.78,819.1538581173709
1957,9.785,531.0449424763293
1958,9.790000000000001,236.1380350210419
1959,9.795,-13.638865422699908
1960,9.8,-189.37651573468838
1961,9.805,-296.5012674009638
1962,9.81,-367.7325579902511
1963,9.815,-442.16718590046594
1964,9.82,-542.145395768734
1965,9.825000000000001,-662.1488671708996
1966,9.83,-777.8281874643475
1967,9.835,-868.1311078355478
1968,9.84,-930.452069728415
1969,9.845,-972.8373404965594
1970,9.85,-989.4610334358678
1971,9.855,-946.395259127511
1972,9.86,-802.318970992052
1973,9.865,-561.6713091309434
1974,9.870000000000001,-324.72562121384897
1975,9.875,-281.4694995231402
1976,9.88,-608.9801093171394
1977,9.885,-1286.0184554276054
1978,9.89,-1925.246358417565
1979,9.895,-1785.4242621480053
1980,9.9,-74.25343505251737
1981,9.905,3539.9431880493953
1982,9.91,8506.853230809907
1983,9.915000000000001,13404.440449966649
1984,9.92,16491.62127986086
1985,9.925,16545.41200245393
1986,9.93,13497.199517763496
1987,9.935,8481.229623779875
1988,9.94,3264.7143324830668
1989,9.945,-605.5753170894211
1990,9.950000000000001,-2459.0510630477584
1991,9.955,-2623.0444248893637
1992,9.96,-2011.199745394823
1993,9.965,-1495.8850719422967
1994,9.97,-1471.4680569613588
1995,9.975,-1825.5556512544163
1996,9.98,-2223.7436813641643
1997,9.985,-2424.9371012475067
1998,9.99,-2404.1537769644283
1999,9.995000000000001,-2272.032411897526
2000,10.0,-2135.873482565082
2001,10.005,-2032.6872481611347
2002,10.01,-1949.4161297932415
2003,10.015,-1867.5246997639756
2004,10.02,-1781.9366255798527
2005,10.025,-1694.8802217250436
2006,10.03,-1607.9197681501018
2007,10.035,-1522.4952690268456
2008,10.040000000000001,-1442.6377341871407
2009,10.045,-1373.258956060061
2010,10.05,-1315.8290140283266
2011,10.055,-1266.4202824846918
2012,10.06,-1217.5798277897336
2013,10.065,-1162.0409903378427
2014,10.07,-1095.85948948661
2015,10.075000000000001,-1019.2746899662523
2016,10.08,-934.7651879648108
2017,10.085,-844.0052494008848
2018,10.09,-746.6777963098372
2019,10.095,-641.9749059769126
2020,10.1,-530.5126930481266
2021,10.105,-414.45036025824857
2022,10.11,-296.109024097496
2023,10.115,-176.45330557348458
2024,10.120000000000001,-53.973427950655626
2025,10.125,75.54141707615364
2026,10.13,217.0896153276977
2027,10.135,372.3888610716382
2028,10.14,536.572225088798
2029,10.145,698.9994518117755
2030,10.15,848.1227929627308
2031,10.155,977.0810065063635
2032,10.16,1086.6292808494845
2033,10.165000000000001,1183.798622345885
2034,10.17,1276.644497833494
2035,10.175,1367.577845161858
2036,10.18,1449.0003677257266
2037,10.185,1503.5963281271506
2038,10.19,1508.8013904228542
2039,10.195,1443.594284864333
2040,10.200000000000001,1296.023006527794
2041,10.205,1069.4188254724222
2042,10.21,784.08063499214
2043,10.215,472.32743496111095
2044,10.22,168.64887156751385
2045,10.225,-100.56791127514052
2046,10.23,-323.7971712763681
2047,10.235,-505.4110524205854
2048,10.24,-660.2386027639814
2049,10.245000000000001,-803.4855593242871
2050,10.25,-941.1926480987872
2051,10.255,-1066.7406256735073
2052,10.26,-1164.8664149297272
2053,10.265,-1220.1302998331748
2054,10.27,-1225.4219667542714
2055,10.275,-1186.8998802923495
2056,10.28,-1122.7721402846714
2057,10.285,-1055.632090947337
2058,10.290000000000001,-1002.3091540930072
2059,10.295,-967.7717691612846
2060,10.3,-946.8537410011952
2061,10.305,-931.5545131166451
2062,10.31,-918.0001682973525
2063,10.315,-908.4374970230283
2064,10.32,-907.7954513653576
2065,10.325000000000001,-918.0071800959809
2066,10.33,-934.406551280911
2067,10.335,-946.8049783120726
2068,10.34,-944.6549208007184
2069,10.345,-923.1922013590103
2070,10.35,-886.8995664086415
2071,10.355,-847.8731957474931
2072,10.36,-819.2877966079063
2073,10.365,-807.5591452160368
2074,10.370000000000001,-808.6971647069977
2075,10.375,-811.8773292270489
2076,10.38,-807.4514543144552
2077,10.385,-793.0253028428501
2078,10.39,-773.6077390205884
2079,10.395,-757.1505024117079
2080,10.4,-749.3899967789539
2081,10.405,-750.7274433151805
2082,10.41,-756.1302753083702
2083,10.415000000000001,-758.147014871428
2084,10.42,-751.6438709930087
2085,10.425,-736.9950393145025
2086,10.43,-719.0595271530163
2087,10.435,-702.9260894097984
2088,10.44,-690.2546473099356
2089,10.445,-678.930064670796
2090,10.450000000000001,-665.4819639931115
2091,10.455,-647.9346470976453
2092,10.46,-627.1733133624954
2093,10.465,-606.167124083921
2094,10.47,-587.7402528240909
2095,10.475,-572.5961224399626
2096,10.48,-559.0511741746988
2097,10.485,-544.509716654722
2098,10.49,-527.5555661689897
2099,10.495000000000001,-509.19559089427884
2100,10.5,-491.72893322636537
2101,10.505,-474.7008234813705
2102,10.51,-450.35288445423
2103,10.515,-403.12255123697236
2104,10.52,-315.0528964020298
2105,10.525,-173.55122125862312
2106,10.53,23.407257756329358
2107,10.535,265.7661390944663
2108,10.540000000000001,532.3182260029243
2109,10.545,794.6834488952231
2110,10.55,1025.4318097217033
2111,10.555,1206.9369998547193
2112,10.56,1333.9540863402083
2113,10.565,1407.0605018701694
2114,10.57,1422.6727837076915
2115,10.575000000000001,1369.047937351951
2116,10.58,1233.0405036728846
2117,10.585,1013.8748144146912
2118,10.59,733.8470719282049
2119,10.595,436.15019306554814
2120,10.6,168.3020764825721
2121,10.605,-39.462628638314584
2122,10.61,-187.43468535247263
2123,10.615,-303.51722188120414
2124,10.620000000000001,-425.40540083498684
2125,10.625,-576.2114236189911
2126,10.63,-747.1141270904469
2127,10.635,-901.2179638923251
2128,10.64,-1000.9061747657713
2129,10.645,-1038.79529193433
2130,10.65,-1041.9199542576293
2131,10.655,-1039.5685524996388
2132,10.66,-1022.9601800645202
2133,10.665000000000001,-940.4293089969187
2134,10.67,-746.3856381938456
2135,10.675,-477.57414965036605
2136,10.68,-296.89314980572436
2137,10.685,-439.1155745370191
2138,10.69,-1031.0078138348276
2139,10.695,-1855.2123942239157
2140,10.700000000000001,-2239.3744894088795
2141,10.705,-1259.9838434061005
2142,10.71,1731.9829107465337
2143,10.715,6540.5964278137135
2144,10.72,11930.025159048091
2145,10.725,16049.151250195984
2146,10.73,17308.497974146965
2147,10.735,15202.540282911103
2148,10.74,10572.442899378255
2149,10.745000000000001,5153.271103026458
2150,10.75,692.8739192200908
2151,10.755,-1834.1823044925675
2152,10.76,-2498.769508115527
2153,10.765,-2104.24563000476
2154,10.77,-1569.8020086070933
2155,10.775,-1426.5270324790813
2156,10.78,-1692.2468261257136
2157,10.785,-2089.9554227962
2158,10.790000000000001,-2358.763877430619
2159,10.795,-2420.2917940621605
2160,10.8,-2345.9993994498604
2161,10.805,-2235.327477942555
2162,10.81,-2135.246634693664
2163,10.815,-2041.6424318016907
2164,10.82,-1939.0089869173885
2165,10.825000000000001,-1825.469869510263
2166,10.83,-1710.1478090507896
2167,10.835,-1601.0629626025636
2168,10.84,-1500.4141022580347
2169,10.845,-1407.7142728069632
2170,10.85,-1322.98464054105
2171,10.855,-1246.2109213173562
2172,10.86,-1175.4653096300835
2173,10.865,-1106.8474302796194
2174,10.870000000000001,-1036.3715464312393
2175,10.875,-962.0349618851253
2176,10.88,-884.6921828796283
2177,10.885,-807.2641741827335
2178,10.89,-732.5445749225929
2179,10.895,-660.7662241497156
2180,10.9,-588.531379821144
2181,10.905,-509.8851492999449
2182,10.91,-418.93099999080266
2183,10.915000000000001,-312.65744379180603
2184,10.92,-192.60537380332227
2185,10.925,-64.31591533724381
2186,10.93,65.41839852137726
2187,10.935,191.75138700714965
2188,10.94,313.11922492781116
2189,10.945,430.17566080809695
2190,10.950000000000001,544.0288008132065
2191,10.955,655.5208862682709
2192,10.96,765.5168393502124
2193,10.965,875.1638148883386
2194,10.97,985.5545180576987
2195,10.975,1096.6366685469516
2196,10.98,1205.1739534663175
2197,10.985,1302.3201828675567
2198,10.99,1372.6852534062264
2199,10.995000000000001,1396.6208772391055
2200,11.0,1355.4454582830122
2201,11.005,1237.5714527424302
2202,11.01,1043.2930322709542
2203,11.015,786.4072767527973
2204,11.02,491.3822842189696
2205,11.025,186.49353358744887
2206,11.03,-104.01982681210691
2207,11.035,-364.8224742451404
2208,11.040000000000001,-589.644322995809
2209,11.045,-778.0424395842887
2210,11.05,-931.2244689734321
2211,11.055,-1049.161298436805
2212,11.06,-1130.7911861411712
2213,11.065,-1177.3142533036953
2214,11.07,-1195.2890407676277
2215,11.075000000000001,-1195.5625900303394
2216,11.08,-1188.3800198173021
2217,11.085,-1179.3336889826876
2218,11.09,-1169.3258475012117
2219,11.095,-1156.981544886452
2220,11.1,-1140.6028540459974
2221,11.105,-1119.0580424521522
2222,11.11,-1092.1344601181179
2223,11.115,-1060.1672749462718
2224,11.120000000000001,-1023.3018174757681
2225,11.125,-981.875412527716
2226,11.13,-937.9184974201845
2227,11.135,-895.461087537175
2228,11.14,-858.5686557799802
2229,11.145,-829.2170725647384
2230,11.15,-807.1027724782684
2231,11.155,-790.8668851124195
2232,11.16,-779.5373692216147
2233,11.165000000000001,-773.9231281410671
2234,11.17,-776.8966473972786
2235,11.175,-790.8128796092292
2236,11.18,-813.3730972465825
2237,11.185,-836.5625732134047
2238,11.19,-850.8056233057733
2239,11.195,-850.7405021266409
2240,11.200000000000001,-837.7902714114662
2241,11.205,-818.4991777004725
2242,11.21,-800.4041059053452
2243,11.215,-787.4387129796083
2244,11.22,-777.4488564313002
2245,11.225,-764.2982797612988
2246,11.23,-743.3056531708941
2247,11.235,-714.9526308957812
2248,11.24,-683.8876325620353
2249,11.245000000000001,-655.6223308319061
2250,11.25,-634.4026716132582
2251,11.255,-622.5005636771689
2252,11.26,-619.8323302478773
2253,11.265,-624.32195138728
2254,11.27,-633.379697888095
2255,11.275,-645.0338897384939
2256,11.28,-657.6210002726035
2257,11.285,-669.2159751537007
2258,11.290000000000001,-677.989509882642
2259,11.295,-682.5886619758346
2260,11.3,-681.535339232525
2261,11.305,-672.5052557311222
2262,11.31,-652.5989219855253
2263,11.315,-619.5307817500867
2264,11.32,-573.6494123617456
2265,11.325000000000001,-520.5161480603908
2266,11.33,-471.4372129601357
2267,11.335,-438.5369971564777
2268,11.34,-425.5256708753984
2269,11.345,-420.880160345402
2270,11.35,-399.277046561339
2271,11.355,-330.57159116685136
2272,11.36,-191.1475642285929
2273,11.365,26.687992680211437
2274,11.370000000000001,309.60802884673535
2275,11.375,624.6269249324075
2276,11.38,928.0399500097503
2277,11.385,1179.1616386495639
2278,11.39,1352.3920956463303
2279,11.395,1441.418667984877
2280,11.4,1453.6510308810625
2281,11.405,1398.844445765249
2282,11.41,1280.1761041152192
2283,11.415000000000001,1095.2302842423953
2284,11.42,847.0750193426727
2285,11.425,556.536859305708
2286,11.43,264.06035034770537
2287,11.435,16.47327426695766
2288,11.44,-154.83339804269784
2289,11.445,-250.83681460529252
2290,11.450000000000001,-305.0364173737173
2291,11.455,-364.1891775387951
2292,11.46,-459.7145650018396
2293,11.465,-588.5737199302981
2294,11.47,-718.3891007635417
2295,11.475,-813.560151199773
2296,11.48,-860.340755655955
2297,11.485,-868.2266463588217
2298,11.49,-846.9579598686596
2299,11.495000000000001,-784.2871429765976
2300,11.5,-654.3471079252138
2301,11.505,-462.64697304882026
2302,11.51,-296.59978810059357
2303,11.515,-324.6782351199312
2304,11.52,-696.9831638503072
2305,11.525,-1361.1755213940783
2306,11.53,-1903.5291601115669
2307,11.535,-1582.978112794958
2308,11.540000000000001,344.04223883387243
2309,11.545,4115.617189441401
2310,11.55,9084.73614100597
2311,11.555,13788.288138720694
2312,11.56,16534.549093857855
2313,11.565,16226.093268929537
2314,11.57,12940.618124068336
2315,11.575000000000001,7909.9099540604
2316,11.58,2897.992380075994
2317,11.585,-655.4675115476068
2318,11.59,-2233.4235491496684
2319,11.595,-2276.336007770564
2320,11.6,-1713.4134953932448
2321,11.605,-1343.952957006482
2322,11.61,-1460.6151095866785
2323,11.615,-1884.5349606424493
2324,11.620000000000001,-2277.590774497391
2325,11.625,-2440.598006676479
2326,11.63,-2396.404447550214
2327,11.635,-2278.043999764224
2328,11.64,-2183.7489119405654
2329,11.645,-2124.99177842685
2330,11.65,-2066.6062567896456
2331,11.655,-1982.603805636542
2332,11.66,-1874.2836603219923
2333,11.665000000000001,-1756.1146193381342
2334,11.67,-1639.4568347619386
2335,11.675,-1528.5667309216456
2336,11.68,-1423.4030278321884
2337,11.685,-1321.424110438297
2338,11.69,-1218.0644635643193
2339,11.695,-1108.8974987382367
2340,11.700000000000001,-993.7379997297542
2341,11.705,-879.7746401802834
2342,11.71,-780.5009711527987
2343,11.715,-709.4352463624108
2344,11.72,-671.2642771080992
2345,11.725,-656.0816200292596
2346,11.73,-641.6926991461468
2347,11.735,-603.6108731037672
2348,11.74,-526.5670626963342
2349,11.745000000000001,-410.6251646436996
2350,11.75,-269.2612598102312
2351,11.755,-121.27194667218365
2352,11.76,19.14812940172458
2353,11.765,148.6945236057204
2354,11.77,273.6494222913313
2355,11.775,402.4336854935869
2356,11.78,538.555983103317
2357,11.785,679.3365426752082
2358,11.790000000000001,819.5373939762869
2359,11.795,955.2142980353599
2360,11.8,1085.1829692700048
2361,11.805,1210.6932351543799
2362,11.81,1333.674584347578
2363,11.815,1452.8361952144928
2364,11.82,1558.7956824046303
2365,11.825000000000001,1632.042821260197
2366,11.83,1646.6959850234575
2367,11.835,1579.2250677265583
2368,11.84,1418.0455342952448
2369,11.845,1168.9691831909297
2370,11.85,853.4683112828125
2371,11.855,501.21875362637894
2372,11.86,142.09277040366814
2373,11.865,-198.33253263690682
2374,11.870000000000001,-500.1488670465036
2375,11.875,-749.9089602250568
2376,11.88,-941.6233753802575
2377,11.885,-1077.1149031194714
2378,11.89,-1165.346926347772
2379,11.895,-1220.4308473256604
2380,11.9,-1257.2364790363413
2381,11.905,-1285.016765762288
2382,11.91,-1303.0598257312945
2383,11.915000000000001,-1302.8563442931136
2384,11.92,-1276.3055268885803
2385,11.925,-1224.0434378900131
2386,11.93,-1157.7548860918646
2387,11.935,-1094.9708569622067
2388,11.94,-1049.9417401444803
2389,11.945,-1026.3727170940892
2390,11.950000000000001,-1016.2828036999804
2391,11.955,-1005.1880037757162
2392,11.96,-980.0991348192406
2393,11.965,-936.0106357893952
2394,11.97,-878.2440171929584
2395,11.975,-820.0125447972785
2396,11.98,-776.2290178784262
2397,11.985,-756.4571348309528
2398,11.99,-760.931857185446
2399,11.995000000000001,-781.7707437563809
2400,12.0,-807.7944010722626
2401,12.005,-829.4336520623847
2402,12.01,-841.5552660651406
2403,12.015,-844.1567164755575
2404,12.02,-841.3223156167633
2405,12.025,-838.5932296725746
2406,12.030000000000001,-839.7359172146529
2407,12.035,-844.8112106613042
2408,12.040000000000001,-850.5741551670851
2409,12.045,-852.3652863389533
2410,12.05,-846.0611035973607
2411,12.055,-829.4698832432133
2412,12.06,-803.1080967237642
2413,12.065,-770.1928731419363
2414,12.07,-735.8891222001791
2415,12.075000000000001,-706.1889237515937
2416,12.08,-686.3842283414044
2417,12.085,-678.7506694688096
2418,12.09,-680.310108194412
2419,12.095,-683.1510543628453
2420,12.1,-678.6812269109088
2421,12.105,-663.4173031678135
2422,12.11,-641.6300040283904
2423,12.115,-622.3207731582794
2424,12.120000000000001,-612.5349652241107
2425,12.125,-611.6853144224203
2426,12.13,-610.7813840231917
2427,12.135,-597.5185907124503
2428,12.14,-564.5902676956324
2429,12.145,-515.8405730514875
2430,12.15,-465.34484628829665
2431,12.155000000000001,-429.20507527953913
2432,12.16,-415.65481566773366
2433,12.165000000000001,-420.79892041470197
2434,12.17,-432.89490514182967
2435,12.175,-440.86232367270156
2436,12.18,-438.9866444202459
2437,12.185,-423.48125789551045
2438,12.19,-384.8698760184323
2439,12.195,-305.066081424157
2440,12.200000000000001,-164.25518637726555
2441,12.205,46.20091949931411
2442,12.21,313.88211196598735
2443,12.215,605.1662692989228
2444,12.22,875.5026909276097
2445,12.225,1085.7193202725712
2446,12.23,1216.4840331012583
2447,12.235,1272.0610301812594
2448,12.24,1269.7612612547296
2449,12.245000000000001,1222.242962792252
2450,12.25,1126.8182969698896
2451,12.255,970.9739111852457
2452,12.26,749.922562080601
2453,12.265,481.8240584084547
2454,12.27,207.5486108110869
2455,12.275,-26.657239404876677
2456,12.280000000000001,-192.32549153412987
2457,12.285,-292.2349526904125
2458,12.290000000000001,-355.86529501238783
2459,12.295,-420.02142656057237
2460,12.3,-505.69794494841415
2461,12.305,-605.0504547537066
2462,12.31,-689.2293507049288
2463,12.315,-734.3065897113096
2464,12.32,-743.2874761781677
2465,12.325000000000001,-739.0211424507648
2466,12.33,-729.6664708857955
2467,12.335,-682.5613818812558
2468,12.34,-544.2703958502988
2469,12.345,-306.89370010754794
2470,12.35,-74.86856642090883
2471,12.355,-63.64270400413089
2472,12.36,-477.351679104756
2473,12.365,-1282.7779424042437
2474,12.370000000000001,-2013.1095642263926
2475,12.375,-1810.2535466002787
2476,12.38,177.77503958859145
2477,12.385,4194.868682643839
2478,12.39,9464.613358732575
2479,12.395,14333.330452774919
2480,12.4,16992.2354324142
2481,12.405000000000001,16390.27349360925
2482,12.41,12785.837218946965
2483,12.415000000000001,7599.2506271704
2484,12.42,2665.14123775531
2485,12.425,-657.6906684997227
2486,12.43,-2010.8392030694483
2487,12.435,-1954.6675562479363
2488,12.44,-1428.5697811085743
2489,12.445,-1151.9590494942704
2490,12.450000000000001,-1328.622948688107
2491,12.455,-1749.883920251877
2492,12.46,-2109.3866998125204
2493,12.465,-2251.9559989677123
2494,12.47,-2212.8792864057345
2495,12.475,-2106.25793710105
2496,12.48,-2010.5817200960955
2497,12.485,-1938.4087522881978
2498,12.49,-1870.741767176831
2499,12.495000000000001,-1794.5086950906746
2500,12.5,-1711.7520833571493
2501,12.505,-1630.078927002165
2502,12.51,-1553.6097043140849
2503,12.515,-1481.1483745387
2504,12.52,-1408.2503042616104
2505,12.525,-1329.6098354238738
2506,12.530000000000001,-1241.1144845137967
2507,12.535,-1141.9358306045488
2508,12.540000000000001,-1036.2143045832265
2509,12.545,-932.8537042314429
2510,12.55,-842.2735891436888
2511,12.555,-771.2615066004544
2512,12.56,-719.2906113312881
2513,12.565,-678.9582397957745
2514,12.57,-639.9480805132874
2515,12.575000000000001,-593.5451745279087
2516,12.58,-535.1191691046787
2517,12.585,-463.80015675321556
2518,12.59,-380.20992628733563
2519,12.595,-284.2966279848059
2520,12.6,-175.35378966033178
2521,12.605,-54.18165468021945
2522,12.61,75.37484042168438
2523,12.615,208.06311188772276
2524,12.620000000000001,341.00250319192924
2525,12.625,475.85101909034495
2526,12.63,617.1094158606322
2527,12.635,768.0421392598519
2528,12.64,927.4186429122103
2529,12.645,1088.8817703586428
2530,12.65,1242.3346693427936
2531,12.655000000000001,1375.4566407878024
2532,12.66,1474.1175132601602
2533,12.665000000000001,1522.4913027679079
2534,12.67,1504.9732140679596
2535,12.675,1410.602174584028
2536,12.68,1237.757503928781
2537,12.685,996.0356254367683
2538,12.69,704.5148583918657
2539,12.695,387.9421104981773
2540,12.700000000000001,72.14000033626004
2541,12.705,-221.10436734451085
2542,12.71,-478.5966563818237
2543,12.715,-697.2388846443399
2544,12.72,-880.9898469193923
2545,12.725,-1034.8798645996344
2546,12.73,-1159.6131062741417
2547,12.735,-1249.828206469754
2548,12.74,-1297.438274899737
2549,12.745000000000001,-1298.8729875161027
2550,12.75,-1261.5312487551769
2551,12.755,-1203.6471262395366
2552,12.76,-1146.409595856984
2553,12.765,-1103.98378464369
2554,12.77,-1078.5951755834599
2555,12.775,-1063.0025112973626
2556,12.780000000000001,-1047.4720972349621
2557,12.785,-1026.6537705746218
2558,12.790000000000001,-1002.4974510634873
2559,12.795,-981.6432730332424
2560,12.8,-969.4503799271614
2561,12.805,-965.2356407798737
2562,12.81,-961.7219522967207
2563,12.815,-948.4063802700707
2564,12.82,-917.0712124582719
2565,12.825000000000001,-867.2397283859041
2566,12.83,-808.4412577986145
2567,12.835,-756.8941677962384
2568,12.84,-728.0980899186363
2569,12.845,-729.9402840328023
2570,12.85,-759.7294087837514
2571,12.855,-805.6475297839968
2572,12.86,-851.8192226579768
2573,12.865,-885.1107536201422
2574,12.870000000000001,-899.7946457955845
2575,12.875,-896.9849063393385
2576,12.88,-880.6648228235446
2577,12.885,-855.1908024251657
2578,12.89,-825.8258709836144
2579,12.895,-799.2040642945058
2580,12.9,-781.3144562566022
2581,12.905000000000001,-774.4298107320244
2582,12.91,-775.4199367246888
2583,12.915000000000001,-776.3055273420813
2584,12.92,-767.2450991463845
2585,12.925,-741.6952460220684
2586,12.93,-701.3066167085301
2587,12.935,-656.7768034765305
2588,12.94,-623.3807968238025
2589,12.945,-613.8074686555474
2590,12.950000000000001,-632.037631402589
2591,12.955,-670.623962026692
2592,12.96,-712.6349786002029
2593,12.965,-738.4226172560716
2594,12.97,-734.5664384172243
2595,12.975,-699.7970090909095
2596,12.98,-644.1733093967351
2597,12.985,-582.6773747840584
2598,12.99,-527.9562353865355
2599,12.995000000000001,-486.3725814644951
2600,13.0,-458.26686534569086
2601,13.005,-440.25820599150626
2602,13.01,-426.5529558735275
2603,13.015,-408.1502441632044
2604,13.02,-371.77341412956787
2605,13.025,-301.24865836502056
2606,13.030000000000001,-182.1438307958507
2607,13.035,-8.161732791664733
2608,13.040000000000001,213.28008697192342
2609,13.045,459.4564855552986
2610,13.05,697.7968343505659
2611,13.055,898.0098051608104
2612,13.06,1044.0040313219051
2613,13.065,1135.9894121634832
2614,13.07,1180.027220048137
2615,13.075000000000001,1174.0962930973815
2616,13.08,1104.244298701008
2617,13.085,956.019731089913
2618,13.09,732.7412408036218
2619,13.095,465.42476483616844
2620,13.1,204.60850129802384
2621,13.105,-2.6451989634857114
2622,13.11,-136.31743674377344
2623,13.115,-212.23226828369332
2624,13.120000000000001,-270.1346724243723
2625,13.125,-348.2404462055805
2626,13.13,-459.89969745914107
2627,13.135,-587.1556455197964
2628,13.14,-696.0073252752908
2629,13.145,-763.1260799879876
2630,13.15,-792.6912743870067
2631,13.155000000000001,-806.6715114303742
2632,13.16,-814.3615381407014
2633,13.165000000000001,-790.0976478717224
2634,13.17,-688.2704545518727
2635,13.175,-497.24443834896095
2636,13.18,-297.2964796705609
2637,13.185,-265.7525331640393
2638,13.19,-582.5319472341517
2639,13.195,-1244.5657075828917
2640,13.200000000000001,-1889.5369022848372
2641,13.205,-1796.0425739190832
2642,13.21,-175.42572634022335
2643,13.215,3323.795578731769
2644,13.22,8193.673357255591
2645,13.225,13062.347126037941
2646,13.23,16220.016135470918
2647,13.235,16433.24196765882
2648,13.24,13581.766008543202
2649,13.245000000000001,8733.846826807638
2650,13.25,3609.9796855438844
2651,13.255,-252.98410441141596
2652,13.26,-2161.7978099401043
2653,13.265,-2405.4238949515184
2654,13.27,-1862.5931192214684
2655,13.275,-1387.5721649744332
2656,13.280000000000001,-1374.785629831008
2657,13.285,-1721.075929764106
2658,13.290000000000001,-2101.6741256332816
2659,13.295,-2284.481776832948
2660,13.3,-2255.037398396171
2661,13.305,-2132.628255232586
2662,13.31,-2023.103903559217
2663,13.315,-1948.7541334311113
2664,13.32,-1876.3891384515478
2665,13.325000000000001,-1775.4985886752183
2666,13.33,-1645.7062769990803
2667,13.335,-1507.5288787602144
2668,13.34,-1381.9604460897233
2669,13.345,-1278.5459790695616
2670,13.35,-1195.002456732408
2671,13.355,-1122.9689034975274
2672,13.36,-1053.9275560348108
2673,13.365,-982.2977354755644
2674,13.370000000000001,-906.2629470554868
2675,13.375,-827.8697914459736
2676,13.38,-752.1598968047233
2677,13.385,-684.540338691179
2678,13.39,-627.5951258880024
2679,13.395,-579.3863356902984
2680,13.4,-533.5523194806184
2681,13.405000000000001,-480.7097994550132
2682,13.41,-411.7685517783932
2683,13.415000000000001,-322.7832932674376
2684,13.42,-217.65609730459525
2685,13.425,-105.36421315127123
2686,13.43,6.13165197947189
2687,13.435,113.95892490904907
2688,13.44,220.3921875741745
2689,13.445,330.79483497839686
2690,13.450000000000001,450.70482578742565
2691,13.455,582.1871026317583
2692,13.46,721.4721614315072
2693,13.465,860.6862489527238
2694,13.47,992.9915975757851
2695,13.475,1116.916643634457
2696,13.48,1236.2731918740467
2697,13.485,1355.0511427415681
2698,13.49,1469.3635873203234
2699,13.495000000000001,1561.2002542896278
2700,13.5,1600.1765741955123
2701,13.505,1555.491644552067
2702,13.51,1411.8085076802456
2703,13.515,1178.2824407001076
2704,13.52,884.8986817505486
2705,13.525,569.3467748059214
2706,13.530000000000001,262.7039747206481
2707,13.535,-18.669054109931245
2708,13.540000000000001,-272.10076495256453
2709,13.545,-501.2134917347737
2710,13.55,-708.3723321728919
2711,13.555,-891.394276771233
2712,13.56,-1044.1460364270386
2713,13.565,-1158.5863511832476
2714,13.57,-1227.609100400664
2715,13.575000000000001,-1249.2166231962524
2716,13.58,-1230.6713087424948
2717,13.585,-1189.402799046058
2718,13.59,-1148.58309960422
2719,13.595,-1128.3853253372847
2720,13.6,-1136.8440805122225
2721,13.605,-1165.781186371812
2722,13.61,-1195.6524712418955
2723,13.615,-1207.3828706059542
2724,13.620000000000001,-1193.3225755684089
2725,13.625,-1159.8958312312209
2726,13.63,-1121.5248477425764
2727,13.635,-1091.642944448652
2728,13.64,-1076.6331465135224
2729,13.645,-1074.652546067945
2730,13.65,-1078.2683114089537
2731,13.655000000000001,-1078.7283681307222
2732,13.66,-1069.5082767104948
2733,13.665000000000001,-1047.7006024247758
2734,13.67,-1013.8246125645605
2735,13.675,-971.6375741198626
2736,13.68,-928.1176836869943
2737,13.685,-892.1316992608082
2738,13.69,-871.1993665538974
2739,13.695,-868.1380307123304
2740,13.700000000000001,-879.8603089847614
2741,13.705,-898.7574066664276
2742,13.71,-915.578465725885
2743,13.715,-922.7526696957219
2744,13.72,-917.2699152348946
2745,13.725,-901.8012181130875
2746,13.73,-883.0048765404454
2747,13.735,-867.599297938361
2748,13.74,-858.4379678008024
2749,13.745000000000001,-853.0712807140939
2750,13.75,-845.9727883802232
2751,13.755,-833.2282639706472
2752,13.76,-816.248682586707
2753,13.765,-801.2344244910215
2754,13.77,-794.5415909194846
2755,13.775,-797.7484609413312
2756,13.780000000000001,-806.15448406177
2757,13.785,-811.1733740272862
2758,13.790000000000001,-804.6677016840246
2759,13.795,-783.2206426405414
2760,13.8,-750.43147840521
2761,13.805,-714.9597703329516
2762,13.81,-683.8321248748833
2763,13.815,-654.6646642299683
2764,13.82,-612.4592656139414
2765,13.825000000000001,-533.7185424164998
2766,13.83,-396.10516794578734
2767,13.835,-189.75617103957634
2768,13.84,74.18831698672753
2769,13.845,363.02197928869066
2770,13.85,633.2839138257393
2771,13.855,849.2719217342868
2772,13.86,997.7925708703783
2773,13.865,1088.011376161694
2774,13.870000000000001,1135.738868590447
2775,13.875,1143.9394026677605
2776,13.88,1095.3773695425648
2777,13.885,965.1608019426446
2778,13.89,745.3109650701103
2779,13.895,462.03546887766595
2780,13.9,170.03589852323373
2781,13.905000000000001,-74.26023089379497
2782,13.91,-242.0951326064107
2783,13.915000000000001,-344.5249727062687
2784,13.92,-420.4591846907463
2785,13.925,-509.33192764766073
2786,13.93,-625.7529763581327
2787,13.935,-752.6570353380979
2788,13.94,-858.8696554648099
2789,13.945,-928.6057546603927
2790,13.950000000000001,-976.0083008304364
2791,13.955,-1025.6137824552486
2792,13.96,-1071.6868759631145
2793,13.965,-1057.9259460825558
2794,13.97,-911.5121252439814
2795,13.975,-622.9295436320115
2796,13.98,-317.91392882106976
2797,13.985,-248.6668477084615
2798,13.99,-652.6534939177144
2799,13.995000000000001,-1503.991123136126
2800,14.0,-2303.3230020625783
2801,14.005,-2126.500224609775
2802,14.01,-52.36669071602989
2803,14.015,4190.987029973137
2804,14.02,9780.719948768856
2805,14.025,14947.77663818396
2806,14.030000000000001,17751.19530331018
2807,14.035,17063.199674329935
2808,14.040000000000001,13166.816391048158
2809,14.045,7597.082743622426
2810,14.05,2333.1348097829778
2811,14.055,-1163.0953323865624
2812,14.06,-2513.478155049106
2813,14.065,-2335.9042727183255
2814,14.07,-1659.7468154018356
2815,14.075000000000001,-1274.0156340396065
2816,14.08,-1402.7904788194137
2817,14.085,-1815.6259282599717
2818,14.09,-2172.0285818708444
2819,14.095,-2296.7997403310465
2820,14.1,-2226.51969914471
2821,14.105,-2088.501304909816
2822,14.11,-1973.096724525492
2823,14.115,-1895.8458741640775
2824,14.120000000000001,-1831.9827543671204
2825,14.125,-1758.6949815216503
2826,14.13,-1669.608992246226
2827,14.135,-1568.580759751435
2828,14.14,-1461.7875060065548
2829,14.145,-1355.1189137214405
2830,14.15,-1253.577787419131
2831,14.155000000000001,-1160.117930910319
2832,14.16,-1075.0530623857433
2833,14.165000000000001,-996.8757415224381
2834,14.17,-923.3250613994849
2835,14.175,-851.8744674990335
2836,14.18,-780.244733529986
2837,14.185,-707.1916417759735
2838,14.19,-632.6473355215783
2839,14.195,-556.8478024806566
2840,14.200000000000001,-479.5595873703714
2841,14.205,-400.3346716262268
2842,14.21,-319.1862450998119
2843,14.215,-236.65391325444628
2844,14.22,-153.18257928848038
2845,14.225,-68.27255651134591
2846,14.23,20.249809194387844
2847,14.235,116.10451312919034
2848,14.24,222.67654084158656
2849,14.245000000000001,340.09159176826523
2850,14.25,463.85692032040976
2851,14.255,586.7898119698596
2852,14.26,702.8342125462598
2853,14.265,809.8710366061672
2854,14.27,910.1279554767277
2855,14.275,1008.56314228908
2856,14.280000000000001,1109.686271222621
2857,14.285,1213.1824629635262
2858,14.290000000000001,1309.8804590201407
2859,14.295,1380.663219048285
2860,14.3,1400.0384675347095
2861,14.305,1343.8201411109665
2862,14.31,1198.3458733011282
2863,14.315,967.4849538210733
2864,14.32,673.7145782548425
2865,14.325000000000001,351.6874429142123
2866,14.33,36.72205094848
2867,14.335,-246.1614012778116
2868,14.34,-487.295146516685
2869,14.345,-689.5716112733837
2870,14.35,-860.1379440597416
2871,14.355,-1001.9639875862212
2872,14.36,-1110.858295530761
2873,14.365,-1179.7757477617804
2874,14.370000000000001,-1206.6054627628346
2875,14.375,-1198.9864639199343
2876,14.38,-1172.5516044469218
2877,14.385,-1144.141024244916
2878,14.39,-1124.3830910051968
2879,14.395,-1113.7046115576009
2880,14.4,-1103.844514963718
2881,14.405000000000001,-1084.062368863016
2882,14.41,-1048.2272361704704
2883,14.415000000000001,-998.2943771351212
2884,14.42,-942.6603590042414
2885,14.425,-891.615136612665
2886,14.43,-852.8630715676336
2887,14.435,-828.6306896492006
2888,14.44,-815.2104424421457
2889,14.445,-805.5716189399875
2890,14.450000000000001,-793.8770903991671
2891,14.455,-778.7588469946938
2892,14.46,-763.0579404533775
2893,14.465,-750.7334237056816
2894,14.47,-743.3568309466617
2895,14.475,-738.156973886633
2896,14.48,-728.7641470328184
2897,14.485,-708.854628675977
2898,14.49,-676.7716816038339
2899,14.495000000000001,-637.5658200450174
2900,14.5,-600.5387295052111
2901,14.505,-573.9775902408572
2902,14.51,-560.58430334914
2903,14.515,-556.4050788569325
2904,14.52,-554.135683847992
2905,14.525,-548.7664440448041
2906,14.530000000000001,-541.0439476883749
2907,14.535,-535.4951788793874
2908,14.540000000000001,-534.8449535073461
2909,14.545,-536.2775519288255
2910,14.55,-532.9554669359268
2911,14.555,-519.1789644048685
2912,14.56,-495.09631787779443
2913,14.565,-467.9112968593838
2914,14.57,-448.47739918038224
2915,14.575000000000001,-444.65185003059526
2916,14.58,-455.9084242496823
2917,14.585,-473.8509427186427
2918,14.59,-488.3226566177136
2919,14.595,-493.74418435133083
2920,14.6,-490.73874103490107
2921,14.605,-482.5276326074977
2922,14.61,-469.00301426712014
2923,14.615,-442.1799615052529
2924,14.620000000000001,-386.0434010968778
2925,14.625,-281.84639399799323
2926,14.63,-116.77801505398197
2927,14.635,108.24912990063719
2928,14.64,375.3698975077862
2929,14.645,652.8671794558296
2930,14.65,904.5941982938434
2931,14.655000000000001,1102.6489633210235
2932,14.66,1236.128740293053
2933,14.665000000000001,1308.9572695140007
2934,14.67,1327.566566766555
2935,14.675,1288.6285797325518
2936,14.68,1178.2062112112126
2937,14.685,984.56150702704
2938,14.69,715.3058094860817
2939,14.695,405.0669383747095
2940,14.700000000000001,105.72878940217885
2941,14.705,-136.51235469568778
2942,14.71,-303.1042486191573
2943,14.715,-409.753166939924
2944,14.72,-493.2163794332439
2945,14.725,-586.4854701528436
2946,14.73,-698.0013742023425
2947,14.735,-808.9184891282505
2948,14.74,-891.3242602793276
2949,14.745000000000001,-933.6302053724269
2950,14.75,-949.6981087920527
2951,14.755,-959.732125671183
2952,14.76,-959.0227480485011
2953,14.765,-908.6869427989142
2954,14.77,-769.6064764617753
2955,14.775,-564.9394212980858
2956,14.780000000000001,-422.9689024539923
2957,14.785,-541.0611431235423
2958,14.790000000000001,-1040.3720843639119
2959,14.795,-1760.9418668761487
2960,14.8,-2144.9650160521533
2961,14.805,-1377.0983980490805
2962,14.81,1184.9926093747968
2963,14.815,5494.7707283119535
2964,14.82,10570.936044648915
2965,14.825000000000001,14774.55142290804
2966,14.83,16537.929533547867
2967,14.835,15152.070992970057
2968,14.84,11142.325692691422
2969,14.845,5999.165727334119
2970,14.85,1425.6261848544596
2971,14.855,-1452.1692074345694
2972,14.86,-2474.328878725768
2973,14.865,-2278.330601671362
2974,14.870000000000001,-1760.4993758540086
2975,14.875,-1543.397850995906
2976,14.88,-1752.315698434756
2977,14.885,-2151.3491453745182
2978,14.89,-2448.82872498921
2979,14.895,-2519.459791462312
2980,14.9,-2422.5935147052505
2981,14.905000000000001,-2282.4503185263147
2982,14.91,-2175.1211892824067
2983,14.915000000000001,-2104.028037507826
2984,14.92,-2040.117608570444
2985,14.925,-1962.279245167576
2986,14.93,-1866.6306357035214
2987,14.935,-1756.931473972115
2988,14.94,-1637.1874268712868
2989,14.945,-1511.7323605232014
2990,14.950000000000001,-1386.8454583166986
2991,14.955,-1269.7147637351645
2992,14.96,-1165.7205668400616
2993,14.965,-1076.6089434120986
2994,14.97,-1000.9810411669757
2995,14.975,-936.5675093080464
2996,14.98,-882.0388596190412
2997,14.985,-836.4072523641911
2998,14.99,-796.7207076930191
2999,14.995000000000001,-756.7498782775065
3000,15.0,-708.2954147654145
3001,15.005,-644.2259887011616
3002,15.01,-561.173254910963
3003,15.015,-460.22521813665753
3004,15.02,-345.14661695495465
3005,15.025,-219.49719716185655
3006,15.030000000000001,-85.25381064665777
3007,15.035,56.07863614055415
3008,15.040000000000001,202.09472254855322
3009,15.045,350.1727998146248
3010,15.05,498.85338189332333
3011,15.055,646.850922959058
3012,15.06,790.1943461310271
3013,15.065,921.6989084293557
3014,15.07,1034.9704172224738
3015,15.075000000000001,1129.6679790971998
3016,15.08,1212.4125492097826
3017,15.085,1290.7167942062413
3018,15.09,1362.7805285790043
3019,15.095,1410.4062972190425
3020,15.1,1402.29016899612
3021,15.105,1308.3635187031725
3022,15.11,1116.5034601958275
3023,15.115,839.924031305954
3024,15.120000000000001,510.80988648351774
3025,15.125,166.0283274274576
3026,15.13,-165.28176964237565
3027,15.135,-465.9718184938963
3028,15.14,-727.209173355139
3029,15.145,-942.6588415848935
3030,15.15,-1107.355148333857
3031,15.155000000000001,-1222.08954277378
3032,15.16,-1296.3725450759061
3033,15.165000000000001,-1343.8558076158893
3034,15.17,-1373.7608331346476
3035,15.175,-1387.4110528781794
3036,15.18,-1382.742468340371
3037,15.185,-1360.697998527416
3038,15.19,-1326.9997759015787
3039,15.195,-1288.9538244682822
3040,15.200000000000001,-1251.06781947729
3041,15.205,-1212.961137924598
3042,15.21,-1170.955767742142
3043,15.215,-1122.1704320280155
3044,15.22,-1067.790861117138
3045,15.225,-1012.7575213278415
3046,15.23,-962.5091266534354
3047,15.235,-919.944454243559
3048,15.24,-884.836857736569
3049,15.245000000000001,-855.3986922555323
3050,15.25,-830.3086345694269
3051,15.255,-809.5728075660523
3052,15.26,-793.5773258782551
3053,15.265,-781.5877641048423
3054,15.27,-772.0994512133948
3055,15.275,-765.3187043643057
3056,15.280000000000001,-764.4440179310614
3057,15.285,-772.8693112519732
3058,15.290000000000001,-789.5215225673427
3059,15.295,-807.4491846208957
3060,15.3,-817.3993501839805
3061,15.305,-813.208688274596
3062,15.31,-795.0381275834761
3063,15.315,-768.8314294082954
3064,15.32,-742.4862205338865
3065,15.325000000000001,-720.8330569894346
3066,15.33,-702.9357716037814
3067,15.335,-684.2521370049825
3068,15.34,-661.967989954103
3069,15.345,-638.3883989589474
3070,15.35,-618.9854612819665
3071,15.355,-606.9904158124956
3072,15.36,-599.7216935612896
3073,15.365,-590.2800910562778
3074,15.370000000000001,-573.6004715692854
3075,15.375,-551.8228574246265
3076,15.38,-533.7929786844627
3077,15.385,-528.1600713548169
3078,15.39,-535.6156770482993
3079,15.395,-547.3561737521484
3080,15.4,-551.5703279692862
3081,15.405000000000001,-542.4268915484166
3082,15.41,-523.6655126887798
3083,15.415000000000001,-503.30193649266977
3084,15.42,-482.8949484372076
3085,15.425,-449.14264263212124
3086,15.43,-374.9085582842119
3087,15.435,-231.3546003669732
3088,15.44,-5.320340006188644
3089,15.445,288.54973561655186
3090,15.450000000000001,609.1174582634508
3091,15.455,903.6957742522303
3092,15.46,1128.8074801854477
3093,15.465,1265.6091670380727
3094,15.47,1321.4350852775813
3095,15.475,1316.6003289842747
3096,15.48,1265.2826897206069
3097,15.485000000000001,1164.4754765961502
3098,15.49,999.8198012154013
3099,15.495000000000001,763.9715662315277
3100,15.5,472.8382478199075
3101,15.505,166.5106343717048
3102,15.51,-106.72875803131966
3103,15.515,-313.0385514372599
3104,15.52,-447.935517867548
3105,15.525,-534.2944685548648
3106,15.530000000000001,-604.8064347794582
3107,15.535,-680.2591878376312
3108,15.540000000000001,-758.2880703804424
3109,15.545,-820.6037638025823
3110,15.55,-853.0069195078911
3111,15.555,-860.7477399654753
3112,15.56,-862.7549171884925
3113,15.565,-865.8704362153742
3114,15.57,-842.9612157756811
3115,15.575000000000001,-744.3565705839478
3116,15.58,-549.2862941192145
3117,15.585,-326.9968003566884
3118,15.59,-251.5436885312502
3119,15.595,-518.2209537398645
3120,15.6,-1157.083988423822
3121,15.605,-1832.9164545078113
3122,15.610000000000001,-1810.1815594608936
3123,15.615,-234.550860769867
3124,15.620000000000001,3322.148587291019
3125,15.625,8371.112429184415
3126,15.63,13465.017211115948
3127,15.635,16758.60925089263
3128,15.64,16911.47058379941
3129,15.645,13805.743330366311
3130,15.65,8634.50187804
3131,15.655000000000001,3293.357557940035
3132,15.66,-567.9869593787539
3133,15.665000000000001,-2277.6908385076513
3134,15.67,-2258.4508785706507
3135,15.675,-1539.0583301169017
3136,15.68,-1044.658290217477
3137,15.685,-1133.8268798553731
3138,15.69,-1610.6616161346103
3139,15.695,-2076.9282821631696
3140,15.700000000000001,-2285.1480226243143
3141,15.705,-2245.5130509979776
3142,15.71,-2102.183010961083
3143,15.715,-1968.8754182026105
3144,15.72,-1870.7520486473945
3145,15.725,-1786.1120989564695
3146,15.73,-1698.7250834861563
3147,15.735000000000001,-1608.9866489993494
3148,15.74,-1519.3793085605766
3149,15.745000000000001,-1425.7865665506552
3150,15.75,-1321.7854689613516
3151,15.755,-1205.726256888998
3152,15.76,-1083.4214763116513
3153,15.765,-966.2062747282205
3154,15.77,-865.981234904171
3155,15.775,-789.641597324153
3156,15.780000000000001,-736.283241361307
3157,15.785,-698.5155126402456
3158,15.790000000000001,-665.775849274727
3159,15.795,-627.5186510616204
3160,15.8,-576.3590793830757
3161,15.805,-510.9178763730991
3162,15.81,-436.09391290593874
3163,15.815,-359.4190423149473
3164,15.82,-285.6161075945803
3165,15.825000000000001,-212.91664243119703
3166,15.83,-133.0752421370434
3167,15.835,-35.04968961063119
3168,15.84,89.07358228080892
3169,15.845,238.83314224671682
3170,15.85,404.078341837716
3171,15.855,568.5673517615936
3172,15.860000000000001,716.5164565531232
3173,15.865,839.1464237818019
3174,15.870000000000001,938.6318686535051
3175,15.875,1027.2112870299131
3176,15.88,1120.7337520419717
3177,15.885,1229.278449593445
3178,15.89,1349.75847778677
3179,15.895,1464.0584394339105
3180,15.9,1543.1787213731704
3181,15.905000000000001,1555.965457847447
3182,15.91,1479.7671832009635
3183,15.915000000000001,1308.692748223192
3184,15.92,1055.2739441524805
3185,15.925,745.182004146242
3186,15.93,409.0098587942932
3187,15.935,75.37496561828027
3188,15.94,-233.51613326632946
3189,15.945,-504.4749817387782
3190,15.950000000000001,-733.7740722172944
3191,15.955,-924.4822289617316
3192,15.96,-1081.4308990380043
3193,15.965,-1206.5256395665074
3194,15.97,-1297.0171859670268
3195,15.975,-1347.4918940718715
3196,15.98,-1354.3409174061587
3197,15.985000000000001,-1320.1921405994303
3198,15.99,-1255.6774818573663
3199,15.995000000000001,-1177.292030546022
3200,16.0,-1102.26087458651
3201,16.005,-1042.7309111329723
3202,16.01,-1001.7215467238393
3203,16.015,-972.7621363194444
3204,16.02,-944.0361544559262
3205,16.025,-905.5186611704339
3206,16.03,-855.1065820802298
3207,16.035,-799.8126045196324
3208,16.04,-751.3989322820573
3209,16.045,-719.4770573502751
3210,16.05,-706.2076381101638
3211,16.055,-705.4518924049895
3212,16.06,-706.9032025228253
3213,16.065,-702.807562623331
3214,16.07,-692.6151902400112
3215,16.075,-682.0134863622484
3216,16.080000000000002,-677.4509393388058
3217,16.085,-681.0868278504114
3218,16.09,-690.1151753677674
3219,16.095,-700.0453648949963
3220,16.1,-708.3859853664045
3221,16.105,-715.6011131971935
3222,16.11,-722.947017656084
3223,16.115000000000002,-729.5481624751997
3224,16.12,-731.9460299922154
3225,16.125,-727.1661304296616
3226,16.13,-716.3765488784031
3227,16.135,-704.7241869885517
3228,16.14,-696.5099958609553
3229,16.145,-690.0252968992457
3230,16.15,-677.3580142064621
3231,16.155,-650.3032401834197
3232,16.16,-608.27746620455
3233,16.165,-561.9504869781603
3234,16.17,-528.6277459029201
3235,16.175,-521.307608871799
3236,16.18,-539.0987022790874
3237,16.185,-566.8895709245129
3238,16.19,-585.1516421092326
3239,16.195,-582.4548883903667
3240,16.2,-561.6243069206165
3241,16.205000000000002,-536.2123241631285
3242,16.21,-520.8445697358541
3243,16.215,-522.0920196866309
3244,16.22,-535.490328121936
3245,16.225,-549.8801992736098
3246,16.23,-554.2181658806653
3247,16.235,-539.9301859520502
3248,16.240000000000002,-497.38222837933466
3249,16.245,-412.39293108745966
3250,16.25,-269.124565553544
3251,16.255,-59.36691502543787
3252,16.26,207.53769902757568
3253,16.265,501.1885962302213
3254,16.27,777.625104753115
3255,16.275,996.4266106794714
3256,16.28,1138.0226439045462
3257,16.285,1208.50540532431
3258,16.29,1226.853092239089
3259,16.295,1203.874427249366
3260,16.3,1130.3011649523864
3261,16.305,984.87414036821
3262,16.31,757.1234286182776
3263,16.315,467.02818664215863
3264,16.32,164.71396874306757
3265,16.325,-92.36469044616119
3266,16.330000000000002,-269.9818158114487
3267,16.335,-374.1229570738038
3268,16.34,-442.96240882547016
3269,16.345,-520.0635624109439
3270,16.35,-626.5397808154007
3271,16.355,-749.4905219687478
3272,16.36,-854.344012588123
3273,16.365000000000002,-913.4178986925359
3274,16.37,-928.57747512406
3275,16.375,-926.1229217397322
3276,16.38,-924.6811592671552
3277,16.385,-905.347912348227
3278,16.39,-818.476092549021
3279,16.395,-635.1973242490504
3280,16.4,-413.9684540155075
3281,16.405,-325.50576032399016
3282,16.41,-578.3814261804014
3283,16.415,-1233.6539551540088
3284,16.42,-1997.259009534144
3285,16.425,-2171.488616615358
3286,16.43,-914.7286989711258
3287,16.435,2244.0929011531443
3288,16.44,6934.33006560606
3289,16.445,11876.745931446072
3290,16.45,15362.851227586896
3291,16.455000000000002,16061.132649750043
3292,16.46,13692.955849878028
3293,16.465,9177.41372726782
3294,16.47,4157.770242786309
3295,16.475,190.04143605610147
3296,16.48,-1937.815486780331
3297,16.485,-2396.6101141238078
3298,16.490000000000002,-1981.095612521872
3299,16.495,-1530.0273764041344
3300,16.5,-1483.53599094933
3301,16.505,-1802.4662045256491
3302,16.51,-2195.8518138447666
3303,16.515,-2416.663107231881
3304,16.52,-2410.5051595038312
3305,16.525,-2273.572827522604
3306,16.53,-2126.378067530144
3307,16.535,-2027.806497651687
3308,16.54,-1970.6889182661848
3309,16.545,-1921.3711173004124
3310,16.55,-1853.4578872471016
3311,16.555,-1758.1431047378849
3312,16.56,-1640.3163450293082
3313,16.565,-1512.0921953802922
3314,16.57,-1387.1878823904462
3315,16.575,-1275.6658726090002
3316,16.580000000000002,-1180.0009283383988
3317,16.585,-1094.8382543429916
3318,16.59,-1011.4043554463651
3319,16.595,-924.207684423144
3320,16.6,-835.3238723418734
3321,16.605,-752.9585969309805
3322,16.61,-685.4585900598119
3323,16.615000000000002,-635.3058751807087
3324,16.62,-596.9875848945052
3325,16.625,-559.4177040571064
3326,16.63,-510.83272239255086
3327,16.635,-443.19490942443304
3328,16.64,-354.0727652401923
3329,16.645,-245.93787913788768
3330,16.65,-124.13871546623665
3331,16.655,5.504623108796835
3332,16.66,139.06702297644443
3333,16.665,275.6991309161752
3334,16.67,416.1445257299711
3335,16.675,559.2993943403189
3336,16.68,700.1176193951802
3337,16.685,831.2947100825746
3338,16.69,947.5345948760904
3339,16.695,1049.1295423580111
3340,16.7,1142.303983808382
3341,16.705000000000002,1235.0079525491803
3342,16.71,1328.4230593674476
3343,16.715,1408.2357048981305
3344,16.72,1443.4195236176095
3345,16.725,1397.6945166116548
3346,16.73,1249.2261261822441
3347,16.735,1005.8276729802578
3348,16.740000000000002,704.369123459658
3349,16.745,393.47907523454546
3350,16.75,109.94616217068278
3351,16.755,-136.14389087028343
3352,16.76,-357.9318834630925
3353,16.765,-573.3077432003364
3354,16.77,-785.8938418795832
3355,16.775,-979.4441892794005
3356,16.78,-1128.107751555193
3357,16.785,-1213.545004438275
3358,16.79,-1236.9995566466625
3359,16.795,-1219.14059908296
3360,16.8,-1188.3110390369104
3361,16.805,-1165.1371171477783
3362,16.81,-1153.7724768481803
3363,16.815,-1144.5817555621118
3364,16.82,-1124.3440141714816
3365,16.825,-1086.0727832788427
3366,16.830000000000002,-1033.057793770699
3367,16.835,-976.0682973056054
3368,16.84,-925.934732946806
3369,16.845,-886.4398331401815
3370,16.85,-853.0592187219228
3371,16.855,-818.742680887867
3372,16.86,-781.3116547830701
3373,16.865000000000002,-745.4992972551877
3374,16.87,-718.2914872595662
3375,16.875,-702.5439240638055
3376,16.88,-694.4717515762511
3377,16.885,-686.5575562689172
3378,16.89,-673.4113828548279
3379,16.895,-656.3207385927152
3380,16.9,-642.8035893084244
3381,16.905,-640.8352345021283
3382,16.91,-652.0741466113517
3383,16.915,-669.8784307045806
3384,16.92,-683.8483847174307
3385,16.925,-686.8915548904314
3386,16.93,-679.0276685676829
3387,16.935,-665.3916358671237
3388,16.94,-650.7686279210926
3389,16.945,-635.6667495352019
3390,16.95,-617.3798310634152
3391,16.955000000000002,-594.696535312177
3392,16.96,-571.2322567110928
3393,16.965,-553.8715711741819
3394,16.97,-547.9494344749293
3395,16.975,-553.6294774817954
3396,16.98,-565.8529890963624
3397,16.985,-576.917189161842
3398,16.990000000000002,-579.9548908858417
3399,16.995,-572.1422992266034
3400,17.0,-556.0849881198716
3401,17.005,-537.9328012389933
3402,17.01,-523.2577018923106
3403,17.015,-514.1377204496166
3404,17.02,-509.5507825836707
3405,17.025,-507.4402054961387
3406,17.03,-505.40255839116435
3407,17.035,-499.0651726081235
3408,17.04,-479.64799196473666
3409,17.045,-432.79261361976444
3410,17.05,-340.42857260919055
3411,17.055,-186.76463591396387
3412,17.06,32.7380516297296
3413,17.065,303.968829686436
3414,17.07,594.2659994071573
3415,17.075,862.6016465196818
3416,17.080000000000002,1075.6748025646887
3417,17.085,1220.1284275085488
3418,17.09,1301.7552444391142
3419,17.095,1331.234639427213
3420,17.1,1307.4742616371952
3421,17.105,1213.5862409799154
3422,17.11,1030.9939828525012
3423,17.115000000000002,761.2350396177827
3424,17.12,437.42533341764835
3425,17.125,115.0670778141376
3426,17.13,-152.71541665423453
3427,17.135,-340.12117933313726
3428,17.14,-458.8855110220308
3429,17.145,-547.6469721191079
3430,17.150000000000002,-646.4130402241262
3431,17.155,-771.5895084248721
3432,17.16,-907.8130715345794
3433,17.165,-1022.4078116466526
3434,17.17,-1091.857238609351
3435,17.175,-1118.5989557461771
3436,17.18,-1121.9024580767152
3437,17.185,-1109.2188198272602
3438,17.19,-1057.0837113016707
3439,17.195,-929.6912931365256
3440,17.2,-733.5852746105218
3441,17.205000000000002,-569.5467643313839
3442,17.21,-623.6143725735944
3443,17.215,-1054.3548956945951
3444,17.22,-1794.7178400941968
3445,17.225,-2384.919447869417
3446,17.23,-2017.4264618693771
3447,17.235,99.98854800513084
3448,17.240000000000002,4187.380275773139
3449,17.245,9491.944198480342
3450,17.25,14392.592222078356
3451,17.255,17069.96442137683
3452,17.26,16411.387301969626
3453,17.265,12617.136697648264
3454,17.27,7122.990858864381
3455,17.275000000000002,1869.8986530774603
3456,17.28,-1644.433521518007
3457,17.285,-2981.118259422611
3458,17.29,-2732.536014888583
3459,17.295,-1958.647898656515
3460,17.3,-1504.1764235620992
3461,17.305,-1623.974200857729
3462,17.31,-2071.7001587005097
3463,17.315,-2467.31650400416
3464,17.32,-2610.8326011205763
3465,17.325,-2542.2413119334906
3466,17.330000000000002,-2402.155201935515
3467,17.335,-2282.5280849699366
3468,17.34,-2189.0790566680457
3469,17.345,-2092.2213113761254
3470,17.35,-1979.547267602758
3471,17.355,-1864.3826874241183
3472,17.36,-1765.9242709161072
3473,17.365000000000002,-1691.8219569880862
3474,17.37,-1634.8388083543089
3475,17.375,-1579.0764436037418
3476,17.38,-1509.2855978134894
3477,17.385,-1418.5592684777398
3478,17.39,-1310.450801354815
3479,17.395,-1194.8976914144932
3480,17.400000000000002,-1082.2120656565342
3481,17.405,-979.87513699331
3482,17.41,-892.45705086628
3483,17.415,-821.5997405813341
3484,17.42,-764.248534221608
3485,17.425,-710.7862975002399
3486,17.43,-646.4392092732322
3487,17.435,-557.6142832167305
3488,17.44,-440.4538348196587
3489,17.445,-305.0705274937715
3490,17.45,-170.33741419639327
3491,17.455000000000002,-51.53671786568826
3492,17.46,50.02477404841054
3493,17.465,147.4481387799892
3494,17.47,258.52666552466604
3495,17.475,392.79174072754705
3496,17.48,544.1676417818935
3497,17.485,694.7008492501335
3498,17.490000000000002,827.3219368287312
3499,17.495,937.9761762562869
3500,17.5,1036.766058456565
3501,17.505,1136.4833986345552
3502,17.51,1237.6302626195898
3503,17.515,1321.6786656077725
3504,17.52,1357.4239306331556
3505,17.525000000000002,1316.025606000313
3506,17.53,1185.4960592879086
3507,17.535,976.4974700403905
3508,17.54,716.7889997903616
3509,17.545,438.6584097254635
3510,17.55,167.60565631619
3511,17.555,-81.95025009878817
3512,17.56,-304.5899387679029
3513,17.565,-499.9189422503701
3514,17.57,-669.686601017751
3515,17.575,-815.8540866285027
3516,17.580000000000002,-938.8074434639226
3517,17.585,-1036.231215692806
3518,17.59,-1103.7399423996494
3519,17.595,-1137.4250161765458
3520,17.6,-1137.1021363327714
3521,17.605,-1108.2696850715715
3522,17.61,-1061.2692007112582
3523,17.615000000000002,-1007.9967861591005
3524,17.62,-958.337195977726
3525,17.625,-918.2310027703774
3526,17.63,-889.1837294850849
3527,17.635,-867.9199088244552
3528,17.64,-846.3105594964165
3529,17.645,-813.3958362765853
3530,17.650000000000002,-760.3451964074047
3531,17.655,-686.2001497722023
3532,17.66,-600.5549047605618
3533,17.665,-520.6753540481707
3534,17.67,-463.81128896627285
3535,17.675,-438.6889634246106
3536,17.68,-441.5418269380576
3537,17.685,-459.70392523713093
3538,17.69,-480.17076887094396
3539,17.695,-496.28455416635137
3540,17.7,-507.6708670089952
3541,17.705000000000002,-515.1613098813823
3542,17.71,-516.6971314194342
3543,17.715,-508.22913270336056
3544,17.72,-488.45882058723384
3545,17.725,-462.75034016523784
3546,17.73,-441.7528543680687
3547,17.735,-434.2575137715157
3548,17.740000000000002,-439.4585065906061
3549,17.745,-445.8133807445211
3550,17.75,-438.6160987753464
3551,17.755,-410.62137728549675
3552,17.76,-367.63707139088115
3553,17.765,-325.50067440933526
3554,17.77,-300.7785575093363
3555,17.775000000000002,-300.73439928898125
3556,17.78,-318.66236455928123
3557,17.785,-338.28218381166437
3558,17.79,-344.8458750869086
3559,17.795,-334.78153501080226
3560,17.8,-316.56771618249803
3561,17.805,-303.1453975005749
3562,17.81,-302.76166259525894
3563,17.815,-314.78711374151925
3564,17.82,-331.88874040518476
3565,17.825,-345.21152973937717
3566,17.830000000000002,-347.587301067674
3567,17.835,-331.9438757944491
3568,17.84,-287.0734814247318
3569,17.845,-196.4301033139057
3570,17.85,-43.599765157555424
3571,17.855,177.52949568049306
3572,17.86,453.7464092383435
3573,17.865000000000002,750.8659743828118
3574,17.87,1023.4933289483138
3575,17.875,1234.2923819488099
3576,17.88,1371.5108461467225
3577,17.885,1449.569056472305
3578,17.89,1488.4800884059143
3579,17.895,1487.5311375141366
3580,17.900000000000002,1416.9726514448953
3581,17.905,1237.8810418963933
3582,17.91,936.9638710580687
3583,17.915,550.2941254973923
3584,17.92,156.7411197209101
3585,17.925,-157.87850753273165
3586,17.93,-344.770615996112
3587,17.935,-416.3372684170185
3588,17.94,-434.59253075263183
3589,17.945,-470.8934342259247
3590,17.95,-562.4418164797079
3591,17.955000000000002,-693.2106976752021
3592,17.96,-812.002809118113
3593,17.965,-875.3119385626186
3594,17.97,-881.7384319651239
3595,17.975,-867.2550279020381
3596,17.98,-863.0083428228879
3597,17.985,-854.6901460063797
3598,17.990000000000002,-787.381565722162
3599,17.995,-624.5488231407862
3600,18.0,-423.296674262477
3601,18.005,-359.756424507054
3602,18.01,-643.7483276899127
3603,18.015,-1317.914252197472
3604,18.02,-2044.7812408002037
3605,18.025000000000002,-2075.965731995825
3606,18.03,-549.919013125592
3607,18.035,2958.1967698793496
3608,18.04,7962.17390816209
3609,18.045,13042.151731936858
3610,18.05,16401.00404371159
3611,18.055,16735.109343059827
3612,18.06,13910.61194965589
3613,18.065,9031.720333436264
3614,18.07,3862.8022658086265
3615,18.075,-41.109242399011805
3616,18.080000000000002,-1991.7401784270942
3617,18.085,-2281.231321253951
3618,18.09,-1775.9603514381947
3619,18.095,-1314.5470944102944
3620,18.1,-1294.6753414061002
3621,18.105,-1640.0212925459268
3622,18.11,-2053.625332919197
3623,18.115000000000002,-2303.0500385938885
3624,18.12,-2340.7712098475404
3625,18.125,-2246.961917227201
3626,18.13,-2114.464956657449
3627,18.135,-1986.9998442851943
3628,18.14,-1868.4208856295622
3629,18.145,-1754.9331640778555
3630,18.150000000000002,-1648.9715120667915
3631,18.155,-1553.2940580126615
3632,18.16,-1464.1486479058394
3633,18.165,-1373.8404139647653
3634,18.17,-1278.2432106214378
3635,18.175,-1180.7694376330423
3636,18.18,-1089.6089398313427
3637,18.185,-1011.230961855719
3638,18.19,-945.476386745631
3639,18.195,-885.9043136949588
3640,18.2,-825.2398789219415
3641,18.205000000000002,-762.051148365318
3642,18.21,-703.2138428110923
3643,18.215,-658.8594478622193
3644,18.22,-632.1843791816236
3645,18.225,-611.9829724085125
3646,18.23,-575.3493860785188
3647,18.235,-500.31943704466585
3648,18.240000000000002,-379.705313643983
3649,18.245,-226.10904128158094
3650,18.25,-64.88195804831797
3651,18.255,79.96256346742399
3652,18.26,198.16344612388434
3653,18.265,296.8712068759244
3654,18.27,393.7038466411363
3655,18.275000000000002,503.99520522625096
3656,18.28,631.1441449226724
3657,18.285,766.489339013774
3658,18.29,897.3970970383454
3659,18.295,1016.1776312057528
3660,18.3,1122.8941322308808
3661,18.305,1220.3264847375883
3662,18.31,1304.941862292162
3663,18.315,1360.7897652446836
3664,18.32,1361.77803370322
3665,18.325,1281.9035521009935
3666,18.330000000000002,1107.2459148088867
3667,18.335,842.9716774016902
3668,18.34,512.7088188665404
3669,18.345,151.738326270112
3670,18.35,-202.88917065652782
3671,18.355,-521.7501902617976
3672,18.36,-788.5046734608003
3673,18.365000000000002,-999.8301815841635
3674,18.37,-1161.3704385002034
3675,18.375,-1282.6118739947315
3676,18.38,-1372.4093724904556
3677,18.385,-1435.889550079379
3678,18.39,-1473.878626868496
3679,18.395,-1485.3910183866064
3680,18.400000000000002,-1471.2980048666589
3681,18.405,-1436.3106071970747
3682,18.41,-1388.3682148578282
3683,18.415,-1336.403712500628
3684,18.42,-1287.4612644432711
3685,18.425,-1244.386379681326
3686,18.43,-1206.0824160136813
3687,18.435,-1170.6139490597411
3688,18.44,-1137.999036669615
3689,18.445,-1109.7141260448286
3690,18.45,-1086.171192521351
3691,18.455000000000002,-1065.4561491373113
3692,18.46,-1044.1441429530116
3693,18.465,-1018.9144139719834
3694,18.47,-988.3855357482591
3695,18.475,-954.6704390984888
3696,18.48,-922.6423317472871
3697,18.485,-895.9840585168575
3698,18.490000000000002,-873.5212635029018
3699,18.495,-850.676324840845
3700,18.5,-825.3472294405467
3701,18.505,-801.8079225780763
3702,18.51,-788.3174628362472
3703,18.515,-790.9603762922445
3704,18.52,-809.0416719539262
3705,18.525000000000002,-834.6926989699224
3706,18.53,-856.2772628436844
3707,18.535,-863.8980487281684
3708,18.54,-854.3628507160964
3709,18.545,-832.5712909134118
3710,18.55,-808.0650003375645
3711,18.555,-788.8629645048303
3712,18.56,-776.9465358201951
3713,18.565,-768.7923664343083
3714,18.57,-760.3611605581075
3715,18.575,-751.7959135691716
3716,18.580000000000002,-747.0018748968405
3717,18.585,-748.4110402143258
3718,18.59,-752.5684551751908
3719,18.595,-751.440809891047
3720,18.6,-738.2589613770474
3721,18.605,-712.4854535174713
3722,18.61,-680.2725015371037
3723,18.615000000000002,-650.9193018355097
3724,18.62,-631.6506630299872
3725,18.625,-623.0801950393351
3726,18.63,-618.1235920983873
3727,18.635,-606.321229023095
3728,18.64,-581.5451756000466
3729,18.645,-547.0316566532869
3730,18.650000000000002,-512.8579566703652
3731,18.655,-487.2366288337909
3732,18.66,-468.1866722593627
3733,18.665,-441.3604630072152
3734,18.67,-384.6742092071181
3735,18.675,-276.3364228483875
3736,18.68,-102.81217524261142
3737,18.685,134.84960295464595
3738,18.69,417.62473735388915
3739,18.695,710.7815196835902
3740,18.7,973.7974304841655
3741,18.705000000000002,1174.6651576853883
3742,18.71,1299.6918518174803
3743,18.715,1351.2697657083804
3744,18.72,1335.7147876632087
3745,18.725,1252.4946961489493
3746,18.73,1095.1402140037749
3747,18.735,863.2666840961587
3748,18.740000000000002,574.9823153841792
3749,18.745,268.53186255889983
3750,18.75,-9.704085316562384
3751,18.755,-224.30802551571753
3752,18.76,-365.8723495140381
3753,18.765,-452.7590760018074
3754,18.77,-517.7235918002635
3755,18.775000000000002,-587.0028592294311
3756,18.78,-665.3124044604479
3757,18.785,-737.4443218327556
3758,18.79,-785.6487828782496
3759,18.795,-808.3922992521925
3760,18.8,-821.8961763776892
3761,18.805,-838.9373881463526
3762,18.81,-842.696894424683
3763,18.815,-785.6824182671371
3764,18.82,-629.1802034159386
3765,18.825,-404.86807135963215
3766,18.830000000000002,-250.22025052175627
3767,18.835,-362.87058931622073
3768,18.84,-850.504086731793
3769,18.845,-1529.8460266010602
3770,18.85,-1821.1080719711586
3771,18.855,-903.9488006113922
3772,18.86,1834.9635939193333
3773,18.865000000000002,6277.934910998646
3774,18.87,11348.445223847688
3775,18.875,15338.292597711234
3776,18.88,16693.638835958696
3777,18.885,14822.670820807736
3778,18.89,10428.435144520272
3779,18.895,5152.026541082389
3780,18.900000000000002,739.9108307922343
3781,18.905,-1768.9985285813711
3782,18.91,-2385.439858732042
3783,18.915,-1910.5895662678536
3784,18.92,-1315.7645754981336
3785,18.925,-1183.9167135413572
3786,18.93,-1530.0705966061191
3787,18.935,-2018.0826042654364
3788,18.94,-2323.7091456984044
3789,18.945,-2353.4796896521375
3790,18.95,-2215.5836072349985
3791,18.955000000000002,-2058.9969411968514
3792,18.96,-1956.2296463903335
3793,18.965,-1897.7581039382937
3794,18.97,-1844.9605384976821
3795,18.975,-1769.2519697870655
3796,18.98,-1659.6879114678422
3797,18.985,-1519.4494262149249
3798,18.990000000000002,-1363.8673852119869
3799,18.995,-1215.4929475412978
3800,19.0,-1093.5137947958297
3801,19.005,-1004.5603917692604
3802,19.01,-941.8702093037937
3803,19.015,-891.9226830486017
3804,19.02,-842.6412826996337
3805,19.025000000000002,-787.9603771759705
3806,19.03,-727.1362034796623
3807,19.035,-661.1581760931549
3808,19.04,-590.2296887743951
3809,19.045,-513.868342174138
3810,19.05,-431.97997839061543
3811,19.055,-345.472236626233
3812,19.06,-256.7686517700969
3813,19.065,-169.98315524587022
3814,19.07,-89.2129872494273
3815,19.075,-15.068638108692056
3816,19.080000000000002,57.8234949256088
3817,19.085,140.05418922151642
3818,19.09,243.5112387218347
3819,19.095,375.6430206623251
