,ppg_time,ppg_sig
0,0.0,-0.10248916608146479
1,0.005,-0.5075628263698988
2,0.01,-1.3017339821736502
3,0.015,-2.4604740951916533
4,0.02,-3.9551360894038132
5,0.025,-5.753973896518519
6,0.03,-7.822949991725439
7,0.035,-10.126361686842255
8,0.04,-12.627329373954943
9,0.045,-15.288203561049722
10,0.05,-18.070949303094427
11,0.055,-20.937541862693514
12,0.06,-23.850372998789158
13,0.065,-26.77265443376174
14,0.07,-29.668813347003276
15,0.075,-32.50487755175878
16,0.08,-35.24883911390744
17,0.085,-37.87098281050273
18,0.09,-40.34417473682895
19,0.095,-42.64411118163757
20,0.1,-44.74952235241879
21,0.105,-46.64231945138824
22,0.11,-48.307672541913185
23,0.115,-49.73400838660058
24,0.12,-50.9129258228968
25,0.125,-51.83904544253832
26,0.13,-52.50982702380743
27,0.135,-52.92538342670341
28,0.14,-53.08829859556997
29,0.145,-53.00344312620424
30,0.15,-52.67778135523863
31,0.155,-52.12016737742337
32,0.16,-51.341127968111515
33,0.165,-50.35263418547726
34,0.17,-49.16787063216893
35,0.17500000000000002,-47.80101186670029
36,0.18,-46.26700447216992
37,0.185,-44.58134131106331
38,0.19,-42.75981848132687
39,0.195,-40.818287893390206
40,0.2,-38.772436609904425
41,0.20500000000000002,-36.63761366294416
42,0.21,-34.42869365281217
43,0.215,-32.15994718252807
44,0.22,-29.84489982045209
45,0.225,-27.496190662175042
46,0.23,-25.125462335441856
47,0.23500000000000001,-22.743311561778924
48,0.24,-20.35930885222344
49,0.245,-17.982074540135184
50,0.25,-15.619388076466358
51,0.255,-13.278309400097752
52,0.26,-10.965300624754988
53,0.265,-8.686346225424193
54,0.27,-6.447071859066921
55,0.275,-4.2528538179303546
56,0.28,-2.10890416451654
57,0.28500000000000003,-0.020323290283198125
58,0.29,2.007873576209682
59,0.295,3.970743765823117
60,0.3,5.863414399482458
61,0.305,7.6810949574076135
62,0.31,9.41911156037108
63,0.315,11.072963946899486
64,0.32,12.638402632292912
65,0.325,14.111525679428176
66,0.33,15.488897670707042
67,0.335,16.767691190739807
68,0.34,17.945842442393143
69,0.34500000000000003,19.02220413129019
70,0.35000000000000003,19.99667854491484
71,0.355,20.87032298388952
72,0.36,21.64542992729326
73,0.365,22.32558612711126
74,0.37,22.91570923344598
75,0.375,23.422056478851424
76,0.38,23.852201582323016
77,0.385,24.21497931920291
78,0.39,24.52039768405028
79,0.395,24.779515606843756
80,0.4,25.004282583095147
81,0.405,25.207336390824416
82,0.41000000000000003,25.401754806392763
83,0.41500000000000004,25.6007570949921
84,0.42,25.817356055624685
85,0.425,26.063974756022844
86,0.43,26.352056251288293
87,0.435,26.691697235766775
88,0.44,27.091326150215632
89,0.445,27.557433929907717
90,0.45,28.094361896779475
91,0.455,28.70415547235
92,0.46,29.3864941318133
93,0.465,30.1386995220623
94,0.47000000000000003,30.95581011174374
95,0.47500000000000003,31.83070586838369
96,0.48,32.75427738100439
97,0.485,33.71565305962084
98,0.49,34.702509296318055
99,0.495,35.70147999841395
100,0.5,36.69865642508191
101,0.505,37.680140560657996
102,0.51,38.632600126117985
103,0.515,39.54377589754484
104,0.52,40.40290701753586
105,0.525,41.201058731973085
106,0.53,41.931354728852526
107,0.535,42.589131803893515
108,0.54,43.17204474025687
109,0.545,43.680149048769394
110,0.55,44.115977518183136
111,0.555,44.484608263358844
112,0.56,44.79370440017759
113,0.5650000000000001,45.05349500049998
114,0.5700000000000001,45.27666768951798
115,0.5750000000000001,45.47815481906605
116,0.58,45.674811816084066
117,0.585,45.885001554514616
118,0.59,46.12811093423706
119,0.595,46.424035530952246
120,0.6,46.79267036840003
121,0.605,47.2534346519926
122,0.61,47.82484136745812
123,0.615,48.524110099786434
124,0.62,49.36681493615492
125,0.625,50.36655308086384
126,0.63,51.53461517598435
127,0.635,52.879642522237425
128,0.64,54.4072676950041
129,0.645,56.11974239900182
130,0.65,58.01555483066919
131,0.655,60.089036736185406
132,0.66,62.32997042188999
133,0.665,64.72323008716403
134,0.67,67.24851495300769
135,0.675,69.88023458510581
136,0.68,72.58758616880687
137,0.685,75.33483333457055
138,0.6900000000000001,78.0817721471926
139,0.6950000000000001,80.7843589292023
140,0.7000000000000001,83.39547623054894
141,0.705,85.86582283880433
142,0.71,88.14492286913462
143,0.715,90.18224710726952
144,0.72,91.92841973675286
145,0.725,93.33645038619562
146,0.73,94.36290493246419
147,0.735,94.96892870809658
148,0.74,95.12106284290165
149,0.745,94.79182991474377
150,0.75,93.96009200290742
151,0.755,92.61120009205906
152,0.76,90.73696565836035
153,0.765,88.3354975437224
154,0.77,85.41095420266676
155,0.775,81.9732536102348
156,0.78,78.03776061420581
157,0.785,73.62494774469329
158,0.79,68.76001682916892
159,0.795,63.47247861119428
160,0.8,57.79570055392612
161,0.805,51.76643184076373
162,0.81,45.42430287141171
163,0.8150000000000001,38.81129355881842
164,0.8200000000000001,31.971178302443363
165,0.8250000000000001,24.94897175749374
166,0.8300000000000001,17.790399469892815
167,0.835,10.541399479629394
168,0.84,3.2476459042396915
169,0.845,-4.045907374748229
170,0.85,-11.295445781085013
171,0.855,-18.458656907519416
172,0.86,-25.49504291266449
173,0.865,-32.36621630322176
174,0.87,-39.036214151718696
175,0.875,-45.47183361614645
176,0.88,-51.6429518723693
177,0.885,-57.52277961133234
178,0.89,-63.088016112854575
179,0.895,-68.31890481972415
180,0.9,-73.19921034230916
181,0.905,-77.71614602037612
182,0.91,-81.8602800100135
183,0.915,-85.62544054515394
184,0.92,-89.00862706288297
185,0.925,-92.00991418259751
186,0.93,-94.63231780279267
187,0.935,-96.88158864428398
188,0.9400000000000001,-98.76591476495855
189,0.9450000000000001,-100.29554471971811
190,0.9500000000000001,-101.48237020174219
191,0.9550000000000001,-102.33951445663598
192,0.96,-102.88095726312616
193,0.965,-103.12120336812947
194,0.97,-103.07499098346354
195,0.975,-102.75704839870883
196,0.98,-102.18192163225008
197,0.985,-101.36388983910243
198,0.99,-100.3169602277477
199,0.995,-99.05491712133659
200,1.0,-97.59140733082154
201,1.0050000000000001,-95.94006544769233
202,1.01,-94.11469357504593
203,1.0150000000000001,-92.12949605984686
204,1.02,-89.99933923494746
205,1.025,-87.7399810227919
206,1.03,-85.3682110770571
207,1.035,-82.90185894259456
208,1.04,-80.35965570898236
209,1.045,-77.76096218822391
210,1.05,-75.12539465600901
211,1.055,-72.47238461200209
212,1.06,-69.82070668350534
213,1.065,-67.18800736162463
214,1.07,-64.5903711754891
215,1.075,-62.041966013013905
216,1.08,-59.55480601720704
217,1.085,-57.13865335740929
218,1.09,-54.80105500416809
219,1.095,-52.54748892616966
220,1.1,-50.381581422247585
221,1.105,-48.30535316981983
222,1.11,-46.319457769715186
223,1.115,-44.42339417461248
224,1.12,-42.61569384995694
225,1.125,-40.89408957304638
226,1.1300000000000001,-39.25566156882234
227,1.135,-37.696941133990755
228,1.1400000000000001,-36.213949450169906
229,1.145,-34.80216577111422
230,1.1500000000000001,-33.45644320606294
231,1.155,-32.17090529265256
232,1.16,-30.938857875547647
233,1.165,-29.752745750417237
234,1.17,-28.604177005024106
235,1.175,-27.484028190213408
236,1.18,-26.382629881334747
237,1.185,-25.29001882814463
238,1.19,-24.196233214646295
239,1.195,-23.09162195158131
240,1.2,-21.96713700232993
241,1.205,-20.814579416663125
242,1.21,-19.62677460982059
243,1.215,-18.397661513602177
244,1.22,-17.122296906755082
245,1.225,-15.796798901843077
246,1.23,-14.418269116738257
247,1.235,-12.984728774579741
248,1.24,-11.495085738280547
249,1.245,-9.949134759189752
250,1.25,-8.347587430411616
251,1.2550000000000001,-6.692123545574047
252,1.26,-4.985449466861425
253,1.2650000000000001,-3.231348112341461
254,1.27,-1.4347096923844176
255,1.2750000000000001,0.39846647069277896
256,1.28,2.2611161480482407
257,1.285,4.145227200156385
258,1.29,6.042054789886209
259,1.295,7.942439625541975
260,1.3,9.837199978975727
261,1.305,11.717539685046045
262,1.31,13.57541138621305
263,1.315,15.40380107229216
264,1.32,17.196936831551746
265,1.325,18.950443720465735
266,1.33,20.661457692658985
267,1.335,22.32868876960973
268,1.34,23.95240889262611
269,1.345,25.53434518734379
270,1.35,27.077481347509075
271,1.355,28.585794822317293
272,1.36,30.063971462038783
273,1.365,31.517136213454844
274,1.37,32.950622692950816
275,1.375,34.36978626276837
276,1.3800000000000001,35.779853400379
277,1.385,37.18579798798182
278,1.3900000000000001,38.59224062271743
279,1.395,40.00337366590383
280,1.4000000000000001,41.42291409665774
281,1.405,42.854075621039435
282,1.41,44.29954019990437
283,1.415,45.761411211040894
284,1.42,47.24114888779152
285,1.425,48.73950997859938
286,1.43,50.25651863961342
287,1.435,51.791478291398576
288,1.44,53.34301035760246
289,1.445,54.90909695420265
290,1.45,56.48711271364389
291,1.455,58.07384003552052
292,1.46,59.66546223467951
293,1.465,61.25752626680911
294,1.47,62.8448707106637
295,1.475,64.42152671536229
296,1.48,65.98061164168051
297,1.485,67.51423755450517
298,1.49,69.01344699351232
299,1.495,70.4681728414177
300,1.5,71.86720770557879
301,1.5050000000000001,73.1981688133642
302,1.51,74.44745828183238
303,1.5150000000000001,75.60023818065832
304,1.52,76.64045081017719
305,1.5250000000000001,77.55090635351395
306,1.53,78.3134365479339
307,1.5350000000000001,78.90909153670667
308,1.54,79.31835415138387
309,1.545,79.52136371309466
310,1.55,79.49816536521656
311,1.555,79.22901172872457
312,1.56,78.69473419904521
313,1.565,77.8771798561216
314,1.57,76.75969027642188
315,1.575,75.3275896899166
316,1.58,73.56865351698566
317,1.585,71.47353763510215
318,1.59,69.036152170339
319,1.595,66.25395704400813
320,1.6,63.1281523268301
321,1.605,59.66374932589635
322,1.61,55.869532560856726
323,1.615,51.75793890463508
324,1.62,47.34488151335134
325,1.625,42.64954096187924
326,1.6300000000000001,37.6941374682731
327,1.635,32.503684016942785
328,1.6400000000000001,27.105708942314195
329,1.645,21.529940538450024
330,1.6500000000000001,15.807959829971033
331,1.655,9.972832562058143
332,1.6600000000000001,4.058724280736027
333,1.665,-1.8995032117687636
334,1.67,-7.866712003506664
335,1.675,-13.807916627565039
336,1.68,-19.688712323091455
337,1.685,-25.47569860467741
338,1.69,-31.136896476941192
339,1.695,-36.64215498715231
340,1.7,-41.96353720973771
341,1.705,-47.075671273792224
342,1.71,-51.956048236389435
343,1.715,-56.58524413205822
344,1.72,-60.94704362269581
345,1.725,-65.02845344291576
346,1.73,-68.81961026728831
347,1.735,-72.31359878774892
348,1.74,-75.50620085149986
349,1.745,-78.39560261538655
350,1.75,-80.9820923919955
351,1.7550000000000001,-83.26777666590675
352,1.76,-85.25632289801578
353,1.7650000000000001,-86.95271862382694
354,1.77,-88.36303522401346
355,1.7750000000000001,-89.49420313920018
356,1.78,-90.35381960511424
357,1.7850000000000001,-90.9499975497539
358,1.79,-91.29123720899938
359,1.795,-91.38629392967938
360,1.8,-91.24403660517277
361,1.805,-90.87331868717071
362,1.81,-90.28289452690915
363,1.815,-89.48140425012613
364,1.82,-88.47742921982581
365,1.825,-87.2795984976552
366,1.83,-85.89671507774675
367,1.835,-84.33787511485619
368,1.84,-82.61257049754796
369,1.845,-80.73078351402762
370,1.85,-78.70309058052878
371,1.855,-76.54078543539636
372,1.86,-74.2560146925013
373,1.865,-71.8618996554193
374,1.87,-69.37260805295533
375,1.875,-66.80334473642125
376,1.8800000000000001,-64.17025183475413
377,1.885,-61.49023773282343
378,1.8900000000000001,-58.78077420220865
379,1.895,-56.059698973953424
380,1.9000000000000001,-53.34503949033409
381,1.905,-50.654848442028445
382,1.9100000000000001,-48.00702766212859
383,1.915,-45.419117396894556
384,1.92,-42.90803722547567
385,1.925,-40.48977769877484
386,1.93,-38.17905909569531
387,1.935,-35.98899518744046
388,1.94,-33.9308131411482
389,1.945,-32.01366933354544
390,1.95,-30.244565512058116
391,1.955,-28.628333317279154
392,1.96,-27.16764462230689
393,1.965,-25.863025990038228
394,1.97,-24.712883598226664
395,1.975,-23.71355293126489
396,1.98,-22.85937820625904
397,1.985,-22.142820108684436
398,1.99,-21.554586605606644
399,1.995,-21.083767509712242
400,2.0,-20.717941747915205
401,2.005,-20.4432417930375
402,2.0100000000000002,-20.244391691189193
403,2.015,-20.104747927976845
404,2.02,-20.006361261073693
405,2.025,-19.930070074214484
406,2.0300000000000002,-19.855641287817786
407,2.035,-19.76197419059795
408,2.04,-19.627365011424203
409,2.045,-19.42980960771049
410,2.05,-19.147315730539248
411,2.055,-18.7582065225393
412,2.06,-18.241411683700054
413,2.065,-17.57675312278926
414,2.07,-16.74524093196965
415,2.075,-15.729405795357016
416,2.08,-14.513691705278148
417,2.085,-13.084904664181371
418,2.09,-11.432675821161345
419,2.095,-9.549885287139752
420,2.1,-7.433013716700289
421,2.105,-5.082419337327805
422,2.11,-2.5025573396937117
423,2.115,0.29783775062525575
424,2.12,3.3055982170794245
425,2.125,6.503017174579072
426,2.13,9.867841615942638
427,2.1350000000000002,13.373428317668516
428,2.14,16.98910427255602
429,2.145,20.68072567676051
430,2.15,24.411389525890982
431,2.1550000000000002,28.14224793697475
432,2.16,31.833400680324914
433,2.165,35.44486358075787
434,2.17,38.937608604290624
435,2.1750000000000003,42.2746502308361
436,2.18,45.42212604327714
437,2.185,48.35029939942076
438,2.19,51.03441025239876
439,2.195,53.4553223375928
440,2.2,55.59995035455442
441,2.205,57.46147817150959
442,2.21,59.03938594862869
443,2.215,60.33929586506643
444,2.22,61.3726382465066
445,2.225,62.156143637724796
446,2.23,62.71118039051016
447,2.235,63.06297082402792
448,2.24,63.239722971405754
449,2.245,63.27171062098523
450,2.25,63.19033176006944
451,2.255,63.02718166945091
452,2.2600000000000002,62.81318550454487
453,2.265,62.57783292676681
454,2.27,62.34854065328814
455,2.275,62.1501486068766
456,2.2800000000000002,62.00454554259996
457,2.285,61.93042377453526
458,2.29,61.943169012504995
459,2.295,62.05488650910036
460,2.3000000000000003,62.2745471006549
461,2.305,62.60821783187322
462,2.31,63.05933349215682
463,2.315,63.62896961828306
464,2.32,64.31608747002134
465,2.325,65.11772966298912
466,2.33,66.02915089564215
467,2.335,67.04387623349785
468,2.34,68.1536919630712
469,2.345,69.34858743109946
470,2.35,70.61667450144495
471,2.355,71.94411094213238
472,2.36,73.31504677070416
473,2.365,74.71160310474392
474,2.37,76.11388591756103
475,2.375,77.50003515691513
476,2.38,78.84631372779562
477,2.3850000000000002,80.12724655174651
478,2.39,81.3158175720112
479,2.395,82.38371849263591
480,2.4,83.30163055624838
481,2.4050000000000002,84.03952683968593
482,2.41,84.56700401935586
483,2.415,84.8536694064882
484,2.42,84.86961043571905
485,2.4250000000000003,84.58596348588857
486,2.43,83.97557987178787
487,2.435,83.01375930639993
488,2.44,81.67899471529405
489,2.445,79.95366263414682
490,2.45,77.82460468632168
491,2.455,75.28356712418194
492,2.46,72.32748522669164
493,2.465,68.95861347924435
494,2.47,65.18451202744504
495,2.475,61.01790548039252
496,2.48,56.47643046502913
497,2.485,51.582284239920014
498,2.49,46.361784425700144
499,2.495,40.84485560217984
500,2.5,35.064469084456555
501,2.505,29.05606743303888
502,2.5100000000000002,22.856999275957598
503,2.515,16.50597656639154
504,2.52,10.042553691629264
505,2.525,3.5066206771814867
506,2.5300000000000002,-3.062099892853565
507,2.535,-9.624560622408538
508,2.54,-16.142897371657583
509,2.545,-22.580910511912695
510,2.5500000000000003,-28.90447981390262
511,2.555,-35.08188917716192
512,2.56,-41.084063919322425
513,2.565,-46.884728531878615
514,2.57,-52.46048009482294
515,2.575,-57.79077376539054
516,2.58,-62.85783893171136
517,2.585,-67.64656125106191
518,2.59,-72.14435831279648
519,2.595,-76.34105402850138
520,2.6,-80.22873678513108
521,2.605,-83.80157921910941
522,2.61,-87.05560681741673
523,2.615,-89.98842641944213
524,2.62,-92.59895315073702
525,2.625,-94.88718785604941
526,2.63,-96.85408377260393
527,2.6350000000000002,-98.50150580143676
528,2.64,-99.83225248196705
529,2.645,-100.85010206256794
530,2.65,-101.55985627421985
531,2.6550000000000002,-101.96736797826881
532,2.66,-102.079544516974
533,2.665,-101.90432708159453
534,2.67,-101.45066128589966
535,2.6750000000000003,-100.72848413169771
536,2.68,-99.74874629085143
537,2.685,-98.52346781281811
538,2.69,-97.06580355897974
539,2.695,-95.39008615733412
540,2.7,-93.51182310914369
541,2.705,-91.44764332415093
542,2.71,-89.21520481700907
543,2.715,-86.83307967256921
544,2.72,-84.32062109697635
545,2.725,-81.69779867800617
546,2.73,-78.984981545387
547,2.735,-76.20266761512772
548,2.74,-73.37118644135923
549,2.745,-70.51041477452088
550,2.75,-67.63952791668383
551,2.755,-64.77678478830096
552,2.7600000000000002,-61.9393347082669
553,2.765,-59.143045380602956
554,2.77,-56.40236774941569
555,2.775,-53.73025343512523
556,2.7800000000000002,-51.13812306705571
557,2.785,-48.63586677708377
558,2.79,-46.231856549391814
559,2.795,-43.93296160767379
560,2.8000000000000003,-41.744567534109166
561,2.805,-39.670597069397026
562,2.81,-37.71352215529647
563,2.815,-35.87435646636897
564,2.82,-34.152626957687296
565,2.825,-32.54633283563676
566,2.83,-31.051908006466835
567,2.835,-29.664210310474775
568,2.84,-28.37656037710376
569,2.845,-27.18083725226735
570,2.85,-26.06761974231982
571,2.855,-25.02636100283587
572,2.86,-24.04559346705154
573,2.865,-23.113160759728107
574,2.87,-22.216464530535244
575,2.875,-21.342717541400805
576,2.88,-20.479210153380652
577,2.8850000000000002,-19.613603628189114
578,2.89,-18.734250672147432
579,2.895,-17.830523142881084
580,2.9,-16.89311028601153
581,2.9050000000000002,-15.914242759967694
582,2.91,-14.88780643859059
583,2.915,-13.809340667621534
584,2.92,-12.675952036995023
585,2.9250000000000003,-11.48619104736309
586,2.93,-10.239930738112527
587,2.935,-8.938268757600241
588,2.94,-7.583455342285685
589,2.945,-6.178827656577585
590,2.95,-4.728715432200473
591,2.955,-3.238289159994185
592,2.96,-1.7133459612171689
593,2.965,-0.16004970526851905
594,2.97,1.4153471391072308
595,2.975,3.006767115720291
596,2.98,4.608527710603936
597,2.985,6.215508026071916
598,2.99,7.82327564040234
599,2.995,9.428192178727489
600,3.0,11.027505292534954
601,3.005,12.619426966907366
602,3.0100000000000002,14.203194682892
603,3.015,15.779100323334251
604,3.02,17.348458802007663
605,3.025,18.913495928796486
606,3.0300000000000002,20.477162250037672
607,3.035,22.042902034405817
608,3.04,23.614410575401045
609,3.045,25.195406147779096
610,3.0500000000000003,26.789433478161683
611,3.055,28.399703832042185
612,3.06,30.0289658777261
613,3.065,31.679398103031005
614,3.0700000000000003,33.352517425571506
615,3.075,35.049103014434834
616,3.08,36.769137360313536
617,3.085,38.51177194200238
618,3.09,40.27533146514545
619,3.095,42.05737095627575
620,3.1,43.854788860736846
621,3.105,45.663981431969816
622,3.11,47.48101130738963
623,3.115,49.30176532523121
624,3.12,51.12209003173253
625,3.125,52.93790599340406
626,3.13,54.74530600053858
627,3.1350000000000002,56.54063917505303
628,3.14,58.320579132673096
629,3.145,60.08217379029831
630,3.15,61.82287663285523
631,3.1550000000000002,63.540561501289275
632,3.16,65.23352387671859
633,3.165,66.90047125842752
634,3.17,68.54050274373763
635,3.1750000000000003,70.15307278728756
636,3.18,71.73792941432578
637,3.185,73.29501825276436
638,3.19,74.82435249143519
639,3.1950000000000003,76.32585997388834
640,3.2,77.7992226330625
641,3.205,79.24371596586039
642,3.21,80.65804482927099
643,3.215,82.04016935426645
644,3.22,83.3871247984517
645,3.225,84.69485210556353
646,3.23,85.95805913119771
647,3.235,87.17012228662455
648,3.24,88.32302355650229
649,3.245,89.40731034654263
650,3.25,90.41206786976815
651,3.255,91.32489966832
652,3.2600000000000002,92.13191761926069
653,3.265,92.81774954501357
654,3.27,93.36557945532401
655,3.275,93.7572373449223
656,3.2800000000000002,93.97334895018427
657,3.285,93.99354488049299
658,3.29,93.79672280641624
659,3.295,93.36136159974481
660,3.3000000000000003,92.66589570529867
661,3.305,91.68915886686749
662,3.31,90.41089501769838
663,3.315,88.81231891368705
664,3.3200000000000003,86.87669902069916
665,3.325,84.58993182267899
666,3.33,81.94107572056055
667,3.335,78.9228109107201
668,3.34,75.53179233951235
669,3.345,71.76887252052714
670,3.35,67.63919074928818
671,3.355,63.15214648768038
672,3.36,58.321284449787804
673,3.365,53.164112136709385
674,3.37,47.70185764638988
675,3.375,41.959171636901544
676,3.38,35.96378371987646
677,3.3850000000000002,29.746128248751177
678,3.39,23.338949116136973
679,3.395,16.77688154987143
680,3.4,10.096000424307988
681,3.4050000000000002,3.333326832554583
682,3.41,-3.473700670175041
683,3.415,-10.28776539986935
684,3.42,-17.07219337159641
685,3.4250000000000003,-23.791443303235294
686,3.43,-30.411570516110825
687,3.435,-36.90065996941159
688,3.44,-43.229194491297235
689,3.4450000000000003,-49.370311145995615
690,3.45,-55.299921643325064
691,3.455,-60.99671347143486
692,3.46,-66.44207083807247
693,3.465,-71.6199411041398
694,3.47,-76.51664267383592
695,3.475,-81.12059759015466
696,3.48,-85.42198471166348
697,3.485,-89.41232968219009
698,3.49,-93.08406259315998
699,3.495,-96.43008210945722
700,3.5,-99.4433618925438
701,3.505,-102.11662012971065
702,3.5100000000000002,-104.44206397883958
703,3.515,-106.41123443591837
704,3.52,-108.01499371088946
705,3.525,-109.24368375678674
706,3.5300000000000002,-110.08744968594547
707,3.535,-110.53670190929064
708,3.54,-110.58268921579479
709,3.545,-110.21814556855905
710,3.5500000000000003,-109.43795834067967
711,3.555,-108.23981464780016
712,3.56,-106.6248166103779
713,3.565,-104.59808179686561
714,3.5700000000000003,-102.1693398728452
715,3.575,-99.35350865253783
716,3.58,-96.17119642033533
717,3.585,-92.64904358656786
718,3.59,-88.81980505739173
719,3.595,-84.72210454776058
720,3.6,-80.39985667754853
721,3.605,-75.90141816622139
722,3.61,-71.27856212848994
723,3.615,-66.58535778997101
724,3.62,-61.876995480326094
725,3.625,-57.20855625423124
726,3.63,-52.63372309847758
727,3.6350000000000002,-48.20347438015754
728,3.64,-43.964850332080395
729,3.645,-39.95988874328615
730,3.65,-36.22478287350746
731,3.6550000000000002,-32.78926544573978
732,3.66,-29.676201010071253
733,3.665,-26.901372145571234
734,3.67,-24.473453307656175
735,3.6750000000000003,-22.394166998386698
736,3.68,-20.65860957474141
737,3.685,-19.25572361476951
738,3.69,-18.16888517002571
739,3.6950000000000003,-17.376570809882146
740,3.7,-16.85307399506886
741,3.705,-16.56925125361352
742,3.71,-16.49328613666334
743,3.715,-16.591455903683855
744,3.72,-16.82888099364691
745,3.725,-17.170244302694133
746,3.73,-17.580482328808674
747,3.735,-18.02545657041782
748,3.74,-18.472606107490034
749,3.745,-18.89157002635923
750,3.75,-19.25475585388929
751,3.755,-19.53781687771192
752,3.7600000000000002,-19.719995910903826
753,3.765,-19.78430737883469
754,3.77,-19.717557393612193
755,3.775,-19.510224032786954
756,3.7800000000000002,-19.15623092520172
757,3.785,-18.652652789794512
758,3.79,-17.99939089767479
759,3.795,-17.19884374106867
760,3.8000000000000003,-16.25558215647983
761,3.805,-15.176034860595703
762,3.81,-13.968197192717398
763,3.815,-12.641374242981614
764,3.8200000000000003,-11.205953590095707
765,3.825,-9.67318693064176
766,3.83,-8.054958499269539
767,3.835,-6.3635312061686236
768,3.84,-4.611277544016159
769,3.845,-2.8104101443270606
770,3.85,-0.9727232817319192
771,3.855,0.8906520121954767
772,3.86,2.7694803851977867
773,3.865,4.654638069477194
774,3.87,6.538299799266284
775,3.875,8.414081582073647
776,3.88,10.27712772503597
777,3.8850000000000002,12.124134777177176
778,3.89,13.95330919188396
779,3.895,15.764263095403061
780,3.9,17.557861603975265
781,3.9050000000000002,19.336038542445564
782,3.91,21.101593492045268
783,3.915,22.85797870396902
784,3.92,24.609086875951323
785,3.9250000000000003,26.359059522191394
786,3.93,28.11214139085342
787,3.935,29.872598733246974
788,3.94,31.644697016260007
789,3.9450000000000003,33.43270840620445
790,3.95,35.2409078450508
791,3.955,37.073525901425675
792,3.96,38.93464581739579
793,3.9650000000000003,40.82804611268899
794,3.97,42.757000039560566
795,3.975,44.7240599041136
796,3.98,46.73087302093857
797,3.985,48.77807615342758
798,3.99,50.865286035784116
799,3.995,52.99116009796646
800,4.0,55.153473986036936
801,4.005,57.34916965780377
802,4.01,59.574358564859
803,4.015,61.824289565942514
804,4.0200000000000005,64.09329415447662
805,4.025,66.37471073981268
806,4.03,68.66078421634084
807,4.035,70.94254573534562
808,4.04,73.20969064931911
809,4.045,75.45047432955832
810,4.05,77.65163428227717
811,4.055,79.79833575973095
812,4.0600000000000005,81.87413764319508
813,4.065,83.86098410117009
814,4.07,85.73923606621115
815,4.075,87.48775716203946
816,4.08,89.08406060628036
817,4.085,90.50451248601475
818,4.09,91.72457976103192
819,4.095,92.71911164147795
820,4.1,93.46264794143279
821,4.105,93.92975197927555
822,4.11,94.09536547314062
823,4.115,93.93518095145329
824,4.12,93.42602876271957
825,4.125,92.54628282722108
826,4.13,91.27629620267061
827,4.135,89.59887567525686
828,4.14,87.49979157384153
829,4.1450000000000005,84.96830094847175
830,4.15,81.99764754993416
831,4.155,78.58549558296262
832,4.16,74.73425652227823
833,4.165,70.45127822750418
834,4.17,65.74888257249002
835,4.175,60.644259899854084
836,4.18,55.15924918046801
837,4.1850000000000005,49.32004219580221
838,4.19,43.15684281789599
839,4.195,36.70349291841883
840,4.2,29.99705777466646
841,4.205,23.077357918312888
842,4.21,15.986441460938492
843,4.215,8.76800291750412
844,4.22,1.466766270824451
845,4.225,-5.872139935284754
846,4.23,-13.203784386240702
847,4.235,-20.483989686626238
848,4.24,-27.669838809986157
849,4.245,-34.720137149573674
850,4.25,-41.59583275897451
851,4.255,-48.260385601115345
852,4.26,-54.68007067737102
853,4.265,-60.824207563902675
854,4.2700000000000005,-66.66532150083823
855,4.275,-72.17924502712982
856,4.28,-77.34516494400378
857,4.285,-82.14561914786402
858,4.29,-86.5664544500997
859,4.295,-90.59675978501795
860,4.3,-94.22878223293249
861,4.305,-97.45782225289842
862,4.3100000000000005,-100.28210176087482
863,4.315,-102.70260760769894
864,4.32,-104.72292123977276
865,4.325,-106.3490391833843
866,4.33,-107.58917386017875
867,4.335,-108.45351899434652
868,4.34,-108.95397610186473
869,4.345,-109.10385751336604
870,4.3500000000000005,-108.9175936460726
871,4.355,-108.41047426609806
872,4.36,-107.59844921032253
873,4.365,-106.49800474401908
874,4.37,-105.126112147838
875,4.375,-103.50021647774601
876,4.38,-101.63821594299655
877,4.385,-99.55839620643819
878,4.39,-97.27931855354022
879,4.3950000000000005,-94.81968553684625
880,4.4,-92.1982108345139
881,4.405,-89.43351444639232
882,4.41,-86.54405817591
883,4.415,-83.54812511071947
884,4.42,-80.46383166242487
885,4.425,-77.30915280258978
886,4.43,-74.10194574846248
887,4.4350000000000005,-70.85996609519425
888,4.44,-67.60087082599138
889,4.445,-64.34219250429591
890,4.45,-61.10126062263152
891,4.455,-57.89505391490069
892,4.46,-54.739990105175345
893,4.465,-51.651680094635296
894,4.47,-48.64467687397048
895,4.4750000000000005,-45.73223637465956
896,4.48,-42.926093363897024
897,4.485,-40.2362545762687
898,4.49,-37.67082166288168
899,4.495,-35.23586399597476
900,4.5,-32.93535667630075
901,4.505,-30.771185797224046
902,4.51,-28.74321018385891
903,4.515,-26.849361543427225
904,4.5200000000000005,-25.085762151293263
905,4.525,-23.44683983591884
906,4.53,-21.925428664762553
907,4.535,-20.512862947765154
908,4.54,-19.199091434453234
909,4.545,-17.972842273587165
910,4.55,-16.821855863490608
911,4.555,-15.733184198096502
912,4.5600000000000005,-14.693539902213235
913,4.565,-13.689665590624978
914,4.57,-12.708686163207124
915,4.575,-11.738409065849247
916,4.58,-10.767551615498663
917,4.585,-9.78589313106344
918,4.59,-8.784363465332305
919,4.595,-7.755083414833303
920,4.6000000000000005,-6.691367389661644
921,4.605,-5.587690428483856
922,4.61,-4.439616959219441
923,4.615,-3.243690228538207
924,4.62,-1.9972855973099612
925,4.625,-0.6984354182748708
926,4.63,0.6543574674643933
927,4.635,2.0622859839778496
928,4.64,3.5263495112765657
929,4.6450000000000005,5.047394307086843
930,4.65,6.626096074196632
931,4.655,8.262903113069257
932,4.66,9.957950938962925
933,4.665,11.710965014274018
934,4.67,13.521180200788974
935,4.675,15.387293872049815
936,4.68,17.30744088177732
937,4.6850000000000005,19.279170228905915
938,4.69,21.29942252828703
939,4.695,23.36452399222025
940,4.7,25.470208937678443
941,4.705,27.61167050743773
942,4.71,29.78363035542051
943,4.715,31.980413784513004
944,4.72,34.19602192753162
945,4.7250000000000005,36.4242101186267
946,4.73,38.65859507872614
947,4.735,40.892802454869674
948,4.74,43.120640130835056
949,4.745,45.33627124484842
950,4.75,47.53437132408329
951,4.755,49.710265872381775
952,4.76,51.860043619944086
953,4.765,53.98063286597074
954,4.7700000000000005,56.06982528415017
955,4.775,58.12623729323035
956,4.78,60.14921277093565
957,4.785,62.13868827545832
958,4.79,64.0950537318443
959,4.795,66.01903913385894
960,4.8,67.91164276333157
961,4.805,69.77409854188733
962,4.8100000000000005,71.60786647996365
963,4.815,73.41462170295661
964,4.82,75.1962148756292
965,4.825,76.95458332799365
966,4.83,78.69160931476848
967,4.835,80.40894304658224
968,4.84,82.10781904487632
969,4.845,83.78888516968631
970,4.8500000000000005,85.45204244374722
971,4.855,87.09628089278324
972,4.86,88.71950403434683
973,4.865,90.31835451813178
974,4.87,91.88806528949416
975,4.875,93.42234949062372
976,4.88,94.91331315838512
977,4.885,96.35135041197354
978,4.89,97.72498376375319
979,4.8950000000000005,99.0206452659555
980,4.9,100.22243560375324
981,4.905,101.311920255038
982,4.91,102.26801698713957
983,4.915,103.06701229852291
984,4.92,103.68273262364592
985,4.925,104.08689168294042
986,4.93,104.24962839372621
987,4.9350000000000005,104.14023049476125
988,4.94,103.72800926684407
989,4.945,102.98326408804174
990,4.95,101.87826699564627
991,4.955,100.38821115675117
992,4.96,98.49209211997861
993,4.965,96.17350851560509
994,4.97,93.42136849604377
995,4.9750000000000005,90.23047478133401
996,4.98,86.60195128755016
997,4.985,82.54347994209755
998,4.99,78.06933179039734
999,4.995,73.20018702850011
1000,5.0,67.96274048418563
1001,5.005,62.38909324920148
1002,5.01,56.515947527144725
1003,5.015,50.38364699925538
1004,5.0200000000000005,44.03512494588659
1005,5.025,37.51482391594948
1006,5.03,30.867633315921697
1007,5.035,24.137867531345513
1008,5.04,17.368293322089258
1009,5.045,10.599219947074289
1010,5.05,3.86768421584875
1011,5.055,-2.7932200005100993
1012,5.0600000000000005,-9.354818808195745
1013,5.065,-15.793115731359777
1014,5.07,-22.088834811445963
1015,5.075,-28.227274092181343
1016,5.08,-34.197993880350715
1017,5.085,-39.99435325581344
1018,5.09,-45.612901357579716
1019,5.095,-51.05263643574916
1020,5.1000000000000005,-56.3141667137981
1021,5.105,-61.398833817885304
1022,5.11,-66.30787454219978
1023,5.115,-71.0416873401706
1024,5.12,-75.59924248528252
1025,5.125,-79.97764895154965
1026,5.13,-84.17187917903522
1027,5.135,-88.17465165514047
1028,5.14,-91.97647051638735
1029,5.1450000000000005,-95.56581571006723
1030,5.15,-98.92946892392895
1031,5.155,-102.05295298057246
1032,5.16,-104.92105369399843
1033,5.165,-107.51838145724713
1034,5.17,-109.82992367539278
1035,5.175,-111.84155157583128
1036,5.18,-113.54047515369605
1037,5.1850000000000005,-114.91566833420455
1038,5.19,-115.95828947824567
1039,5.195,-116.6620954873328
1040,5.2,-117.02381396375765
1041,5.205,-117.04342708334106
1042,5.21,-116.72433870177042
1043,5.215,-116.07342258764741
1044,5.22,-115.1009647470813
1045,5.2250000000000005,-113.82051335157468
1046,5.23,-112.2486437894055
1047,5.235,-110.40464236322187
1048,5.24,-108.31011370002649
1049,5.245,-105.98852216946784
1050,5.25,-103.46468261019928
1051,5.255,-100.76421993514136
1052,5.26,-97.9130252646102
1053,5.265,-94.93674924011601
1054,5.2700000000000005,-91.86037991033606
1055,5.275,-88.70793857024717
1056,5.28,-85.5022934528423
1057,5.285,-82.26505717352762
1058,5.29,-79.01651889551766
1059,5.295,-75.7755721583161
1060,5.3,-72.55962464904488
1061,5.305,-69.38449889745532
1062,5.3100000000000005,-66.26433823422792
1063,5.315,-63.21152247030249
1064,5.32,-60.23659293246467
1065,5.325,-57.34819987270544
1066,5.33,-54.55309809560088
1067,5.335,-51.85620247979924
1068,5.34,-49.26068491474604
1069,5.345,-46.76808349504128
1070,5.3500000000000005,-44.37840975947116
1071,5.355,-42.09025425517587
1072,5.36,-39.900891810601024
1073,5.365,-37.80638659852743
1074,5.37,-35.801698591546305
1075,5.375,-33.880790446608415
1076,5.38,-32.0367294572737
1077,5.385,-30.261783682432153
1078,5.39,-28.547521892819027
1079,5.3950000000000005,-26.88492908377089
1080,5.4,-25.264540358863744
1081,5.405,-23.676587840163613
1082,5.41,-22.111154880728666
1083,5.415,-20.55833592015643
1084,5.42,-19.008405974525996
1085,5.425,-17.45200825931367
1086,5.43,-15.880362103719754
1087,5.4350000000000005,-14.285473406385181
1088,5.44,-12.660317993256065
1089,5.445,-10.998984756070746
1090,5.45,-9.296790102699624
1091,5.455,-7.550371497901953
1092,5.46,-5.757742705370171
1093,5.465,-3.9182870011485864
1094,5.47,-2.0326855050680797
1095,5.4750000000000005,-0.10279500618820789
1096,5.48,1.86851344621115
1097,5.485,3.877550254679964
1098,5.49,5.9200236051264055
1099,5.495,7.991244611418398
1100,5.5,10.086283468852116
1101,5.505,12.200058375878655
1102,5.51,14.327373862246986
1103,5.515,16.46294987438898
1104,5.5200000000000005,18.601480538924836
1105,5.525,20.73773675606354
1106,5.53,22.866699696091477
1107,5.535,24.983700992959278
1108,5.54,27.084552532665864
1109,5.545,29.16566297220857
1110,5.55,31.224147058744183
1111,5.555,33.25793180671831
1112,5.5600000000000005,35.26585185364848
1113,5.565,37.24771279775054
1114,5.57,39.2042988484278
1115,5.575,41.13731605959032
1116,5.58,43.04928397123752
1117,5.585,44.943399121654906
1118,5.59,46.8233901952707
1119,5.595,48.69337634594918
1120,5.6000000000000005,50.55773281868672
1121,5.605,52.420961418069396
1122,5.61,54.287564240017964
1123,5.615,56.16193186725759
1124,5.62,58.04826621236874
1125,5.625,59.950543245336476
1126,5.63,61.8724914922095
1127,5.635,63.817550749589834
1128,5.64,65.78879556536769
1129,5.6450000000000005,67.78884023304317
1130,5.65,69.81975852702904
1131,5.655,71.88304178933164
1132,5.66,73.97959463368856
1133,5.665,76.1097473540861
1134,5.67,78.27325727429661
1135,5.675,80.4692748196654
1136,5.68,82.69625898532178
1137,5.6850000000000005,84.95183846972195
1138,5.69,87.23262537543805
1139,5.695,89.53399365568838
1140,5.7,91.84983438214068
1141,5.705,94.1722995509286
1142,5.71,96.49155027471423
1143,5.715,98.79553249878619
1144,5.72,101.06980649287671
1145,5.7250000000000005,103.29744995088372
1146,5.73,105.45904295118552
1147,5.735,107.53273525730958
1148,5.74,109.49439390655766
1149,5.745,111.31782546501434
1150,5.75,112.9750597153391
1151,5.755,114.43667465543022
1152,5.76,115.6721430887281
1153,5.765,116.65019077868251
1154,5.7700000000000005,117.33917109332762
1155,5.775,117.7074733104981
1156,5.78,117.7239836849753
1157,5.785,117.35860843339559
1158,5.79,116.58285301010514
1159,5.795,115.37044200696108
1160,5.8,113.69796129554985
1161,5.805,111.54550335543745
1162,5.8100000000000005,108.89729264238304
1163,5.815,105.74226025553094
1164,5.82,102.07453066548246
1165,5.825,97.893783806092
1166,5.83,93.20546686217382
1167,5.835,88.02084868786223
1168,5.84,82.35692645056501
1169,5.845,76.23620057787777
1170,5.8500000000000005,69.68633256564345
1171,5.855,62.739700190136475
1172,5.86,55.43287101636096
1173,5.865,47.8060236146407
1174,5.87,39.90234935159546
1175,5.875,31.767461884434766
1176,5.88,23.44882753695258
1177,5.885,14.995214016850518
1178,5.89,6.45614717855107
1179,5.8950000000000005,-2.118629104995624
1180,5.9,-10.679682907250655
1181,5.905,-19.17840087834763
1182,5.91,-27.567463186168645
1183,5.915,-35.80128784637128
1184,5.92,-43.836450105587616
1185,5.925,-51.6320783834244
1186,5.93,-59.15021902456671
1187,5.9350000000000005,-66.35615454034723
1188,5.94,-73.21865826427596
1189,5.945,-79.71017297698438
1190,5.95,-85.80691116873592
1191,5.955,-91.48888606942884
1192,5.96,-96.73988645708103
1193,5.965,-101.54739988150217
1194,5.97,-105.90247847399858
1195,5.9750000000000005,-109.79954479893193
1196,5.98,-113.23615284370813
1197,5.985,-116.21273415868227
1198,5.99,-118.73235549170248
1199,5.995,-120.80049408418078
1200,6.0,-122.4248188191412
1201,6.005,-123.6149656308871
1202,6.01,-124.38230901491661
1203,6.015000000000001,-124.73974064931365
1204,6.0200000000000005,-124.70146531154126
1205,6.025,-124.28282241649326
1206,6.03,-123.50014398755961
1207,6.035,-122.37066078854565
1208,6.04,-120.91246083443845
1209,6.045,-119.1444908067182
1210,6.05,-117.08658105342693
1211,6.055,-114.75947593170466
1212,6.0600000000000005,-112.18485850738404
1213,6.065,-109.38536155978412
1214,6.07,-106.3845532009671
1215,6.075,-103.20688255190608
1216,6.08,-99.87757455641528
1217,6.085,-96.42247152060472
1218,6.09,-92.8678271993032
1219,6.095,-89.2400624219796
1220,6.1000000000000005,-85.56548660885392
1221,6.105,-81.86998064292428
1222,6.11,-78.17863498571695
1223,6.115,-74.51535061497049
1224,6.12,-70.90243018526185
1225,6.125,-67.36019550076517
1226,6.13,-63.906661498150434
1227,6.135,-60.55728756986593
1228,6.140000000000001,-57.324820928238104
1229,6.1450000000000005,-54.21923950979296
1230,6.15,-51.24778928895736
1231,6.155,-48.415096095835565
1232,6.16,-45.7233225513381
1233,6.165,-43.17234139743583
1234,6.17,-40.75990619540757
1235,6.175,-38.48181371475894
1236,6.18,-36.33206403338444
1237,6.1850000000000005,-34.30303152037824
1238,6.19,-32.38566123732209
1239,6.195,-30.569699883176384
1240,6.2,-28.843958225798087
1241,6.205,-27.196587900004722
1242,6.21,-25.615350380752723
1243,6.215,-24.08786689340055
1244,6.22,-22.601856650175833
1245,6.2250000000000005,-21.145379686519828
1246,6.23,-19.707091990223038
1247,6.235,-18.276502803708937
1248,6.24,-16.844210947787822
1249,6.245,-15.402098032695099
1250,6.25,-13.943471762270413
1251,6.255,-12.463171611034484
1252,6.26,-10.957653982259497
1253,6.265000000000001,-9.42505478275035
1254,6.2700000000000005,-7.865198278647642
1255,6.275,-6.279511980281458
1256,6.28,-4.67083530898588
1257,6.285,-3.0431586689128047
1258,6.29,-1.401357881307474
1259,6.295,0.24903002954460612
1260,6.3,1.9019882022541241
1261,6.305,3.551181165542457
1262,6.3100000000000005,5.190109333289251
1263,6.315,6.812253770068701
1264,6.32,8.411207227171143
1265,6.325,9.980796305425484
1266,6.33,11.515201401679658
1267,6.335,13.009072109543158
1268,6.34,14.457630499462773
1269,6.345,15.856765313744642
1270,6.3500000000000005,17.203134771525765
1271,6.355,18.494293339235842
1272,6.36,19.72884059938478
1273,6.365,20.906577981710267
1274,6.37,22.028656278873466
1275,6.375,23.09769476487806
1276,6.38,24.117856691990507
1277,6.385,25.09488620112288
1278,6.390000000000001,26.036131289975255
1279,6.3950000000000005,26.95056920258061
1280,6.4,27.848823614321823
1281,6.405,28.743151381363628
1282,6.41,29.647385577932027
1283,6.415,30.576828591266747
1284,6.42,31.5480913838484
1285,6.425,32.578887283197
1286,6.43,33.68779973253746
1287,6.4350000000000005,34.894026484284694
1288,6.44,36.21706685743581
1289,6.445,37.67630470857175
1290,6.45,39.29046428619395
1291,6.455,41.07695659522796
1292,6.46,43.05116447818842
1293,6.465,45.225725794737166
1294,6.47,47.60986297832002
1295,6.4750000000000005,50.20877891610633
1296,6.48,53.02311722055212
1297,6.485,56.048494866332646
1298,6.49,59.275150845429614
1299,6.495,62.68778019403841
1300,6.5,66.2656097515234
1301,6.505,69.98272510130367
1302,6.51,73.80860969811064
1303,6.515000000000001,77.70883881489739
1304,6.5200000000000005,81.64588625569439
1305,6.525,85.58002517909185
1306,6.53,89.47030565354736
1307,6.535,93.27556358930518
1308,6.54,96.95538222897993
1309,6.545,100.47091934724132
1310,6.55,103.78553662151381
1311,6.555,106.86520427922417
1312,6.5600000000000005,109.67868919210693
1313,6.565,112.19756432443461
1314,6.57,114.39609604736208
1315,6.575,116.25106568976649
1316,6.58,117.74156725394916
1317,6.585,118.84880840426663
1318,6.59,119.55593292538765
1319,6.595,119.84787626723408
1320,6.6000000000000005,119.71126080370561
1321,6.605,119.13433810323802
1322,6.61,118.1069904711563
1323,6.615,116.62080465142115
1324,6.62,114.66922081130352
1325,6.625,112.2477431929705
1326,6.63,109.35418505366823
1327,6.635,105.98891736964036
1328,6.640000000000001,102.1550973178719
1329,6.6450000000000005,97.85886326055841
1330,6.65,93.1094954287764
1331,6.655,87.91955334891205
1332,6.66,82.30500280689594
1333,6.665,76.28532957318745
1334,6.67,69.88361522525236
1335,6.675,63.12654323366298
1336,6.68,56.04431687783232
1337,6.6850000000000005,48.6704904145645
1338,6.69,41.0417257268726
1339,6.695,33.19748464241155
1340,6.7,25.179657947443214
1341,6.705,17.03212484762659
1342,6.71,8.800239155290742
1343,6.715,0.5302530138334257
1344,6.72,-7.731291190206032
1345,6.7250000000000005,-15.938157275017252
1346,6.73,-24.04496022916648
1347,6.735,-32.00763899192061
1348,6.74,-39.78385969508714
1349,6.745,-47.33336665615012
1350,6.75,-54.618300244349676
1351,6.755,-61.603494456306585
1352,6.76,-68.25675783048949
1353,6.765000000000001,-74.5491314132535
1354,6.7700000000000005,-80.45510920116658
1355,6.775,-85.95280326935432
1356,6.78,-91.02403932825581
1357,6.785,-95.65437729848136
1358,6.79,-99.83306250621087
1359,6.795,-103.55292237145163
1360,6.8,-106.81022661674287
1361,6.805,-109.60452333668485
1362,6.8100000000000005,-111.93845092206244
1363,6.815,-113.817514752852
1364,6.82,-115.24981759528254
1365,6.825,-116.24574764033287
1366,6.83,-116.81765025553591
1367,6.835,-116.97952364293083
1368,6.84,-116.74677430189531
1369,6.845,-116.13604805741583
1370,6.8500000000000005,-115.16512986934603
1371,6.855,-113.85289368005289
1372,6.86,-112.21928354166496
1373,6.865,-110.28531004168906
1374,6.87,-108.07304358345188
1375,6.875,-105.60558002096015
1376,6.88,-102.90695385117652
1377,6.885,-100.00198598416273
1378,6.890000000000001,-96.9160713469159
1379,6.8950000000000005,-93.67492365102446
1380,6.9,-90.30429501136764
1381,6.905,-86.82968235612478
1382,6.91,-83.27602908114073
1383,6.915,-79.66743172984981
1384,6.92,-76.02686350148275
1385,6.925,-72.37592475310004
1386,6.93,-68.73462739802343
1387,6.9350000000000005,-65.12122122588087
1388,6.94,-61.552076915668316
1389,6.945,-58.04164603089901
1390,6.95,-54.602513207992
1391,6.955,-51.24553685213921
1392,6.96,-47.980049491642404
1393,6.965,-44.81407153267651
1394,6.97,-41.75449283693108
1395,6.9750000000000005,-38.80719487851441
1396,6.98,-35.97711170199326
1397,6.985,-33.268247299193725
1398,6.99,-30.683672926576847
1399,6.995,-28.225521051380856
1400,7.0,-25.894978819477732
1401,7.005,-23.69227147653584
1402,7.01,-21.61662386497593
1403,7.015000000000001,-19.666199143222197
1404,7.0200000000000005,-17.838030682054264
1405,7.025,-16.127974302042258
1406,7.03,-14.530710004089956
1407,7.035,-13.039816615985764
1408,7.04,-11.647925942863248
1409,7.045,-10.34693389973855
1410,7.05,-9.128220495407584
1411,7.055,-7.982829939532676
1412,7.0600000000000005,-6.901586508851926
1413,7.065,-5.8751493347529875
1414,7.07,-4.894022759367582
1415,7.075,-3.9485395120149542
1416,7.08,-3.0288319924733007
1417,7.085,-2.1248095598891994
1418,7.09,-1.2261662843226906
1419,7.095,-0.32244649091714755
1420,7.1000000000000005,0.5968146723854537
1421,7.105,1.5418819676709015
1422,7.11,2.5225713114450383
1423,7.115,3.54799674422362
1424,7.12,4.626337959183213
1425,7.125,5.764640499506577
1426,7.13,6.968653504514353
1427,7.135,8.242705212807284
1428,7.140000000000001,9.589612397371562
1429,7.1450000000000005,11.010618480567866
1430,7.15,12.505354967072199
1431,7.155,14.071820202373429
1432,7.16,15.70637404320091
1433,7.165,17.40376113165436
1434,7.17,19.157187060276463
1435,7.175,20.958465308034835
1436,7.18,22.798235545858677
1437,7.1850000000000005,24.666246092890038
1438,7.19,26.551695583600804
1439,7.195,28.443624083710564
1440,7.2,30.33132880185786
1441,7.205,32.20476962015976
1442,7.21,34.05493341744209
1443,7.215,35.87413597994229
1444,7.22,37.65624751717369
1445,7.2250000000000005,39.39683174407954
1446,7.23,41.09319157110802
1447,7.235,42.7443190666937
1448,7.24,44.350757275492334
1449,7.245,45.91439756303471
1450,7.25,47.43825040242488
1451,7.255,48.92622924030785
1452,7.26,50.38297491037737
1453,7.265000000000001,51.81372727222029
1454,7.2700000000000005,53.22422322138733
1455,7.275,54.62057287306748
1456,7.28,56.00906297227476
1457,7.285,57.39587670035627
1458,7.29,58.786777540005225
1459,7.295,60.18683113370866
1460,7.3,61.60021271874866
1461,7.305,63.030096209315644
1462,7.3100000000000005,64.47858552801982
1463,7.315,65.94664928948235
1464,7.32,67.43404678214664
1465,7.325,68.93925994617808
1466,7.33,70.45945066043673
1467,7.335,71.99044446989957
1468,7.34,73.52672208098572
1469,7.345,75.06139917145605
1470,7.3500000000000005,76.58618878317911
1471,7.355,78.09134638455501
1472,7.36,79.5655864469367
1473,7.365,80.99594827220633
1474,7.37,82.36760295660966
1475,7.375,83.66363561458907
1476,7.38,84.86487583997425
1477,7.385,85.94984779338358
1478,7.390000000000001,86.89486917808577
1479,7.3950000000000005,87.67428212570591
1480,7.4,88.26078111249466
1481,7.405,88.62581540705938
1482,7.41,88.74006540812344
1483,7.415,88.57400298005291
1484,7.42,88.09854106512289
1485,7.425,87.28576482413223
1486,7.43,86.10972040544473
1487,7.4350000000000005,84.54722046379307
1488,7.44,82.57861643317663
1489,7.445,80.18849563722169
1490,7.45,77.36628100320924
1491,7.455,74.1067249913965
1492,7.46,70.41028779546166
1493,7.465,66.28337923033736
1494,7.47,61.73843635620811
1495,7.4750000000000005,56.79381216837766
1496,7.48,51.47346412467656
1497,7.485,45.806449902599525
1498,7.49,39.82625679475167
1499,7.495,33.57000742656251
1500,7.5,27.07759530494596
1501,7.505,20.39080710286427
1502,7.51,13.552484982844444
1503,7.515000000000001,6.605773753378303
1504,7.5200000000000005,-0.4065150474943194
1505,7.525,-7.442408925141488
1506,7.53,-14.461163435450505
1507,7.535,-21.423576169003127
1508,7.54,-28.292281597117857
1509,7.545,-35.03206869323727
1510,7.55,-41.61022618192258
1511,7.555,-47.99688230197385
1512,7.5600000000000005,-54.16528732407798
1513,7.565,-60.0919920665355
1514,7.57,-65.7568945280846
1515,7.575,-71.14314773066155
1516,7.58,-76.2369412115371
1517,7.585,-81.02718692567107
1518,7.59,-85.50515248956918
1519,7.595,-89.66408287618103
1520,7.6000000000000005,-93.49883783809966
1521,7.605,-97.00555873390874
1522,7.61,-100.18137472069566
1523,7.615,-103.02416321071382
1524,7.62,-105.53238387218451
1525,7.625,-107.70500007859803
1526,7.63,-109.54148446851195
1527,7.635,-111.04188427522652
1528,7.640000000000001,-112.20691189225901
1529,7.6450000000000005,-113.0380361262891
1530,7.65,-113.5375732128648
1531,7.655,-113.70879547649163
1532,7.66,-113.55607509046285
1533,7.665,-113.08506172227922
1534,7.67,-112.30287054897836
1535,7.675,-111.21824707706818
1536,7.68,-109.84168178902439
1537,7.6850000000000005,-108.18546268132681
1538,7.69,-106.26366638606059
1539,7.695,-104.09209443340679
1540,7.7,-101.68816390033744
1541,7.705,-99.07076638079388
1542,7.71,-96.2601150400796
1543,7.715,-93.27759953610853
1544,7.72,-90.14565734234593
1545,7.7250000000000005,-86.8876506477663
1546,7.73,-83.52772235823309
1547,7.735,-80.09060424071407
1548,7.74,-76.60136534884958
1549,7.745,-73.08510881002363
1550,7.75,-69.56663816164135
1551,7.755,-66.07011718419193
1552,7.76,-62.6187447827198
1553,7.765000000000001,-59.23446464951354
1554,7.7700000000000005,-55.937726295975374
1555,7.775,-52.74730362445603
1556,7.78,-49.68016052319181
1557,7.785,-46.75134002774589
1558,7.79,-43.97385394626266
1559,7.795,-41.35856276145646
1560,7.8,-38.91404953615258
1561,7.805000000000001,-36.64649545953078
1562,7.8100000000000005,-34.55956036693781
1563,7.815,-32.65426941043266
1564,7.82,-30.928910826566973
1565,7.825,-29.378953054611866
1566,7.83,-27.996986297754813
1567,7.835,-26.772686609296468
1568,7.84,-25.692798652983473
1569,7.845,-24.7411423253981
1570,7.8500000000000005,-23.898663933277987
1571,7.855,-23.14356330028141
1572,7.86,-22.45152644586876
1573,7.865,-21.796079576944084
1574,7.87,-21.14905860932134
1575,7.875,-20.481166061470535
1576,7.88,-19.762573183025687
1577,7.885,-18.96352732555831
1578,7.890000000000001,-18.054941935909444
1579,7.8950000000000005,-17.008967759141917
1580,7.9,-15.799554632195267
1581,7.905,-14.403010553002408
1582,7.91,-12.798562062431342
1583,7.915,-10.968928260043635
1584,7.92,-8.900925527744878
1585,7.925,-6.586097524271412
1586,7.930000000000001,-4.02132036299911
1587,7.9350000000000005,-1.2093003614438949
1588,7.94,1.8411134499035045
1589,7.945,5.114845505916194
1590,7.95,8.590746827180334
1591,7.955,12.24197725741768
1592,7.96,16.03660497134515
1593,7.965,19.93840184579585
1594,7.97,23.907799560251913
1595,7.9750000000000005,27.90296859869751
1596,7.98,31.880989922079277
1597,7.985,35.79908984812207
1598,7.99,39.61589602860963
1599,7.995,43.292655539535524
1600,8.0,46.794342399321266
1601,8.005,50.09057657062736
1602,8.01,53.15629408546705
1603,8.015,55.972154411553014
1604,8.02,58.52471771029323
1605,8.025,60.80643284240241
1606,8.03,62.81545183722698
1607,8.035,64.55527009557143
1608,8.040000000000001,66.03420616489004
1609,8.045,67.26476410722621
1610,8.05,68.2629414109626
1611,8.055,69.04754667901635
1612,8.06,69.6395743496185
1613,8.065,70.06165528166899
1614,8.07,70.33757746917452
1615,8.075,70.49186287433635
1616,8.08,70.54938824244213
1617,8.085,70.53503447567823
1618,8.09,70.47334077699148
1619,8.095,70.38814167856026
1620,8.1,70.30218425937932
1621,8.105,70.23674784202748
1622,8.11,70.2113019347682
1623,8.115,70.24323269604092
1624,8.120000000000001,70.34765093433029
1625,8.125,70.53727989738944
1626,8.13,70.82241731216679
1627,8.135,71.21096889547674
1628,8.14,71.70854717834558
1629,8.145,72.31861323849365
1630,8.15,73.04261996800173
1631,8.155,73.88011240162196
1632,8.16,74.82876005217967
1633,8.165000000000001,75.88432556037839
1634,8.17,77.04059336456952
1635,8.175,78.28928163393846
1636,8.18,79.61994806646955
1637,8.185,81.01989002401446
1638,8.19,82.47403718795
1639,8.195,83.9648375312703
1640,8.2,85.47214639525961
1641,8.205,86.97314692538198
1642,8.21,88.44234861626937
1643,8.215,89.85171088181545
1644,8.22,91.17091374934253
1645,8.225,92.36776254684906
1646,8.23,93.40869086469723
1647,8.235,94.25932416946941
1648,8.24,94.88506903832184
1649,8.245000000000001,95.25168627700958
1650,8.25,95.3258088752491
1651,8.255,95.07540239797419
1652,8.26,94.47021449194781
1653,8.265,93.48227064760677
1654,8.27,92.0864329316262
1655,8.275,90.2609880596626
1656,8.28,87.98821344936084
1657,8.285,85.25488852857241
1658,8.290000000000001,82.05274476560918
1659,8.295,78.3788529100663
1660,8.3,74.23592842052128
1661,8.305,69.63251866232892
1662,8.31,64.58303821470665
1663,8.315,59.107640526186
1664,8.32,53.23193744980553
1665,8.325,46.98658786202226
1666,8.33,40.40677547459409
1667,8.335,33.53159610058846
1668,8.34,26.403377627835475
1669,8.345,19.066955576278648
1670,8.35,11.568926800083373
1671,8.355,3.956911684367081
1672,8.36,-3.7211364427609253
1673,8.365,-11.417543654827735
1674,8.370000000000001,-19.085441744847113
1675,8.375,-26.679221633657043
1676,8.38,-34.15493508936881
1677,8.385,-41.47066629150359
1678,8.39,-48.58689261551984
1679,8.395,-55.4668453510129
1680,8.4,-62.07685987170901
1681,8.405,-68.38667654020011
1682,8.41,-74.36963894306429
1683,8.415000000000001,-80.00275316783343
1684,8.42,-85.26661413045022
1685,8.425,-90.14524463901083
1686,8.43,-94.62590697332524
1687,8.435,-98.6989325174677
1688,8.44,-102.35758490120061
1689,8.445,-105.5979433790009
1690,8.45,-108.41877996359145
1691,8.455,-110.82141129487496
1692,8.46,-112.80952719216857
1693,8.465,-114.38901578801467
1694,8.47,-115.56780465994554
1695,8.475,-116.35571840965751
1696,8.48,-116.76433560119918
1697,8.485,-116.8068322840634
1698,8.49,-116.49782083436526
1699,8.495000000000001,-115.85320737245867
1700,8.5,-114.89008456394718
1701,8.505,-113.62665688673856
1702,8.51,-112.08217766445016
1703,8.515,-110.27687048112132
1704,8.52,-108.23181335393483
1705,8.525,-105.96877832909418
1706,8.53,-103.51003485392965
1707,8.535,-100.87813457171887
1708,8.540000000000001,-98.09569333871806
1709,8.545,-95.18517543060447
1710,8.55,-92.16867456305704
1711,8.555,-89.06768655770581
1712,8.56,-85.90288066811168
1713,8.565,-82.69389201654253
1714,8.57,-79.45916456370409
1715,8.575000000000001,-76.21586605061064
1716,8.58,-72.97987623238558
1717,8.585,-69.76582834079768
1718,8.59,-66.58717379264492
1719,8.595,-63.45624716570335
1720,8.6,-60.38432504574233
1721,8.605,-57.38168403408226
1722,8.61,-54.45766123716045
1723,8.615,-51.620708852751456
1724,8.620000000000001,-48.87842514405298
1725,8.625,-46.237545689275684
1726,8.63,-43.70388783288747
1727,8.635,-41.28224817481879
1728,8.64,-38.97625528830987
1729,8.645,-36.7881838570551
1730,8.65,-34.718746353967326
1731,8.655,-32.7668903607445
1732,8.66,-30.92963572134199
1733,8.665000000000001,-29.20198216205366
1734,8.67,-27.576909030995157
1735,8.675,-26.04548070820832
1736,8.68,-24.597063625800956
1737,8.685,-23.2196488873211
1738,8.69,-21.900258666083648
1739,8.695,-20.62540143360361
1740,8.700000000000001,-19.38153511493689
1741,8.705,-18.155498367752667
1742,8.71,-16.934878048250123
1743,8.715,-15.708295957697851
1744,8.72,-14.465616836701095
1745,8.725,-13.198093265031678
1746,8.73,-11.898461872238826
1747,8.735,-10.560988842188893
1748,8.74,-9.181446107473004
1749,8.745000000000001,-7.757002352027323
1750,8.75,-6.286039477218592
1751,8.755,-4.76793898451777
1752,8.76,-3.2028990465196623
1753,8.765,-1.5918286012467122
1754,8.77,0.06367129526376286
1755,8.775,1.7612638387204365
1756,8.78,3.4978137025863054
1757,8.785,5.269348241121296
1758,8.790000000000001,7.071074997452632
1759,8.795,8.897473210927
1760,8.8,10.742461642251444
1761,8.805,12.599630014669257
1762,8.81,14.46250906580285
1763,8.815,16.324848379401526
1764,8.82,18.18087368415995
1765,8.825000000000001,20.025503120669345
1766,8.83,21.85450865790419
1767,8.835,23.66461234359668
1768,8.84,25.45351434626553
1769,8.845,27.219865148849927
1770,8.85,28.963205798564246
1771,8.855,30.68389277618471
1772,8.86,32.3830052624878
1773,8.865,34.06222487248589
1774,8.870000000000001,35.723687364021096
1775,8.875,37.36981759306204
1776,8.88,39.00316181374349
1777,8.885,40.626228381199624
1778,8.89,42.24134502865114
1779,8.895,43.85053904342687
1780,8.9,45.45544501981605
1781,8.905,47.05724399519948
1782,8.91,48.65663766319748
1783,8.915000000000001,50.25385896008587
1784,8.92,51.84871163136557
1785,8.925,53.44061911527201
1786,8.93,55.028660171480254
1787,8.935,56.611584615341016
1788,8.94,58.187826386666686
1789,8.945,59.75554146850075
1790,8.950000000000001,61.312688824878094
1791,8.955,62.857155309890466
1792,8.96,64.38690998858091
1793,8.965,65.90016081036924
1794,8.97,67.39548089405974
1795,8.975,68.87187938220804
1796,8.98,70.32880995875101
1797,8.985,71.76612386628783
1798,8.99,73.18397099934698
1799,8.995000000000001,74.58263928069634
1800,9.0,75.96232458799545
1801,9.005,77.3228522314425
1802,9.01,78.66339579856455
1803,9.015,79.98222527505645
1804,9.02,81.27648382307584
1805,9.025,82.5419886119964
1806,9.03,83.77307109199492
1807,9.035,84.96247125473724
1808,9.040000000000001,86.10127513710452
1809,9.045,87.17887513741516
1810,9.05,88.18294986636982
1811,9.055,89.09947475379124
1812,9.06,89.91277199385674
1813,9.065,90.60560375701965
1814,9.07,91.15931294705217
1815,9.075000000000001,91.55401058910986
1816,9.08,91.76879786318875
1817,9.085,91.78200926496973
1818,9.09,91.57147792539587
1819,9.095,91.11484103599233
1820,9.1,90.3899042237964
1821,9.105,89.37506644988079
1822,9.11,88.04978996987931
1823,9.115,86.39510061742149
1824,9.120000000000001,84.39411437806224
1825,9.125,82.03258438628353
1826,9.13,79.299443571713
1827,9.135,76.18730047408276
1828,9.14,72.69284521106552
1829,9.145,68.81713871221315
1830,9.15,64.56578113452869
1831,9.155,59.948972645666785
1832,9.16,54.98148020236848
1833,9.165000000000001,49.68250739153267
1834,9.17,44.07544964828584
1835,9.175,38.187524983909896
1836,9.18,32.049296558401885
1837,9.185,25.69412293419892
1838,9.19,19.15756906944355
1839,9.195,12.476794060756125
1840,9.200000000000001,5.689919012661761
1841,9.205,-1.1646177834038745
1842,9.21,-8.048693184867679
1843,9.215,-14.925075886289449
1844,9.22,-21.757902793818747
1845,9.225,-28.51303109183938
1846,9.23,-35.15827289657771
1847,9.235,-41.663540649451654
1848,9.24,-48.00093366147578
1849,9.245000000000001,-54.14478656792658
1850,9.25,-60.07169174822345
1851,9.255,-65.76050440747046
1852,9.26,-71.19233374538346
1853,9.265,-76.35051254393352
1854,9.27,-81.2205338929461
1855,9.275,-85.78996038149661
1856,9.28,-90.04833174654222
1857,9.285,-93.98709176322151
1858,9.290000000000001,-97.59952354931292
1859,9.295,-100.88065589824252
1860,9.3,-103.82710583225074
1861,9.305,-106.43684853664759
1862,9.31,-108.70893299685828
1863,9.315,-110.64317428276713
1864,9.32,-112.23985289044437
1865,9.325000000000001,-113.49944840656225
1866,9.33,-114.42243335401707
1867,9.335,-115.00914858908654
1868,9.34,-115.25977000834185
1869,9.345,-115.1743610827382
1870,9.35,-114.75299493908571
1871,9.355,-113.99592856388023
1872,9.36,-112.90381764022767
1873,9.365,-111.47796576169223
1874,9.370000000000001,-109.72060109143573
1875,9.375,-107.63516962395758
1876,9.38,-105.22663545104848
1877,9.385,-102.5017895286487
1878,9.39,-99.46958230924736
1879,9.395,-96.14149835588053
1880,9.4,-92.53197579740525
1881,9.405,-88.65884659959985
1882,9.41,-84.54374856634489
1883,9.415000000000001,-80.21244643742867
1884,9.42,-75.69499776704954
1885,9.425,-71.02570647247744
1886,9.43,-66.2428254991117
1887,9.435,-61.38800277245108
1888,9.44,-56.505502355305055
1889,9.445,-51.641258018854224
1890,9.450000000000001,-46.84182049462854
1891,9.455,-42.15324885424504
1892,9.46,-37.61998337902726
1893,9.465,-33.28373129895726
1894,9.47,-29.182400688357742
1895,9.475,-25.34912758869915
1896,9.48,-21.811448162381776
1897,9.485,-18.590663172683602
1898,9.49,-15.70142533409915
1899,9.495000000000001,-13.151558262402752
1900,9.5,-10.942098622358214
1901,9.505,-9.067545186876556
1902,9.51,-7.51629569491625
1903,9.515,-6.271247132920193
1904,9.52,-5.310525753978917
1905,9.525,-4.608305397659296
1906,9.53,-4.135672505050569
1907,9.535,-3.8615046867781273
1908,9.540000000000001,-3.7533424546465
1909,9.545,-3.778242720102452
1910,9.55,-3.903599951462847
1911,9.555,-4.097906416497003
1912,9.56,-4.33140917719803
1913,9.565,-4.5766236464967065
1914,9.57,-4.808683745096155
1915,9.575000000000001,-5.005535903004414
1916,9.58,-5.148006825042133
1917,9.585,-5.219786052847673
1918,9.59,-5.207358274149488
1919,9.595,-5.0998988098975335
1920,9.6,-4.889125887990532
1921,9.605,-4.569103882280956
1922,9.61,-4.136009308731178
1923,9.615,-3.587884892933988
1924,9.620000000000001,-2.9244045768786915
1925,9.625,-2.146660871415543
1926,9.63,-1.2569767419143352
1927,9.635,-0.2587404098797914
1928,9.64,0.8437405112270507
1929,9.645,2.0453720498362125
1930,9.65,3.3404020911576278
1931,9.655,4.722548314868917
1932,9.66,6.185124109907715
1933,9.665000000000001,7.721157951495472
1934,9.67,9.323504853186227
1935,9.675,10.984953605452455
1936,9.68,12.698335411569515
1937,9.685,14.456635765786384
1938,9.69,16.253102439757733
1939,9.695,18.08133175616268
1940,9.700000000000001,19.93530984231106
1941,9.705,21.809392915953648
1942,9.71,23.698232933711928
1943,9.715,25.59668211581749
1944,9.72,27.4997219121713
1945,9.725,29.402447032582927
1946,9.73,31.300106676849335
1947,9.735,33.18818824801123
1948,9.74,35.062530048296374
1949,9.745000000000001,36.91945389697892
1950,9.75,38.75590500229857
1951,9.755,40.56957936625228
1952,9.76,42.35901850610847
1953,9.765,44.12366059800614
1954,9.77,45.86385060827803
1955,9.775,47.58082004644615
1956,9.78,49.27664372886304
1957,9.785,50.95416951023314
1958,9.790000000000001,52.6169081805091
1959,9.795,54.26887279692557
1960,9.8,55.914365990417316
1961,9.805,57.55772267928512
1962,9.81,59.20302597357641
1963,9.815,60.85382836505788
1964,9.82,62.512914820577016
1965,9.825000000000001,64.1821248853115
1966,9.83,65.86222269135278
1967,9.835,67.55279664741077
1968,9.84,69.2521844423876
1969,9.845,70.9574243432987
1970,9.85,72.66421648094737
1971,9.855,74.36686020579391
1972,9.86,76.05814803615522
1973,9.865,77.72924242601846
1974,9.870000000000001,79.36959183176957
1975,9.875,80.96691625276502
1976,9.88,82.50723614784722
1977,9.885,83.97489836816565
1978,9.89,85.35258679232544
1979,9.895,86.6213494286506
1980,9.9,87.76068546445778
1981,9.905,88.74871386471627
1982,9.91,89.56241258064398
1983,9.915000000000001,90.17789627024429
1984,9.92,90.57070226916879
1985,9.925,90.71607621219947
1986,9.93,90.58927275284492
1987,9.935,90.1658964879998
1988,9.94,89.42230404500017
1989,9.945,88.33608062780549
1990,9.950000000000001,86.88659294857159
1991,9.955,85.0555995396487
1992,9.96,82.82787827814678
1993,9.965,80.19182692724192
1994,9.97,77.14000400854003
1995,9.975,73.66958611489191
1996,9.98,69.78271697130327
1997,9.985,65.48672341545746
1998,9.99,60.79418192986276
1999,9.995000000000001,55.722834756621815
2000,10.0,50.2953742205261
2001,10.005,44.539131490412636
2002,10.01,38.48570514499124
2003,10.015,32.17053760556617
2004,10.02,25.632418166282537
2005,10.025,18.91289277929806
2006,10.03,12.05558756292339
2007,10.035,5.105472562048099
2008,10.040000000000001,-1.8919032693531626
2009,10.045,-8.89116665744199
2010,10.05,-15.847811650771003
2011,10.055,-22.71878050893672
2012,10.06,-29.462918483683097
2013,10.065,-36.04132700794866
2014,10.07,-42.41765884257019
2015,10.075000000000001,-48.55838654761668
2016,10.08,-54.43304586211178
2017,10.085,-60.014431740684145
2018,10.09,-65.27872046346015
2019,10.095,-70.20550371273613
2020,10.1,-74.77773911668622
2021,10.105,-78.98163604509713
2022,10.11,-82.80649868765173
2023,10.115,-86.24454158532532
2024,10.120000000000001,-89.29068572116003
2025,10.125,-91.94234520867558
2026,10.13,-94.19922162532102
2027,10.135,-96.06312204968276
2028,10.14,-97.53780284200344
2029,10.145,-98.62882548468899
2030,10.15,-99.34341098707944
2031,10.155,-99.69029876799972
2032,10.16,-99.67963381063136
2033,10.165000000000001,-99.32289947324541
2034,10.17,-98.63288920218146
2035,10.175,-97.62369651354366
2036,10.18,-96.31071097242258
2037,10.185,-94.71062339622472
2038,10.19,-92.84144716099351
2039,10.195,-90.72255088331066
2040,10.200000000000001,-88.37468150093687
2041,10.205,-85.81994809507567
2042,10.21,-83.08173941125314
2043,10.215,-80.18455802496555
2044,10.22,-77.15376770403465
2045,10.225,-74.01526682055731
2046,10.23,-70.79511733376167
2047,10.235,-67.51916911465734
2048,10.24,-64.21271507457344
2049,10.245000000000001,-60.90019244388428
2050,10.25,-57.60492075073023
2051,10.255,-54.34885405402815
2052,10.26,-51.1523313492099
2053,10.265,-48.0338280498982
2054,10.27,-45.009729110702956
2055,10.275,-42.094149954426214
2056,10.28,-39.29882373362172
2057,10.285,-36.633060531151266
2058,10.290000000000001,-34.103776060195955
2059,10.295,-31.715587013541708
2060,10.3,-29.470969253313623
2061,10.305,-27.370465655758288
2062,10.31,-25.412918938367028
2063,10.315,-23.59570449432811
2064,10.32,-21.914949447319835
2065,10.325000000000001,-20.365733260439292
2066,10.33,-18.94226353412303
2067,10.335,-17.638014531732388
2068,10.34,-16.445819004221388
2069,10.345,-15.357921367385723
2070,10.35,-14.366021203058612
2071,10.355,-13.461341892804834
2072,10.36,-12.634741997886756
2073,10.365,-11.876857156782284
2074,10.370000000000001,-11.178237965254684
2075,10.375,-10.529448567968643
2076,10.38,-9.921108741329679
2077,10.385,-9.343884230251268
2078,10.39,-8.788443955894438
2079,10.395,-8.245407767589361
2080,10.4,-7.705311410972117
2081,10.405,-7.158619643260233
2082,10.41,-6.595817260410403
2083,10.415000000000001,-6.0075921364650435
2084,10.42,-5.385096610254948
2085,10.425,-4.7202481458653684
2086,10.43,-4.006020637938126
2087,10.435,-3.2366866280135205
2088,10.44,-2.4079901136072714
2089,10.445,-1.5172474638546671
2090,10.450000000000001,-0.5633811223654561
2091,10.455,0.4531141394575552
2092,10.46,1.5302827263519037
2093,10.465,2.6649109402278226
2094,10.47,3.852820578597973
2095,10.475,5.089224307986692
2096,10.48,6.36908783981171
2097,10.485,7.687441370088716
2098,10.49,9.039606344499667
2099,10.495000000000001,10.42133641407364
2100,10.5,11.828893165443372
2101,10.505,13.259079097744797
2102,10.51,14.709238094852731
2103,10.515,16.177221370824622
2104,10.52,17.661316997546706
2105,10.525,19.16015566137447
2106,10.53,20.67262332318386
2107,10.535,22.197816710552917
2108,10.540000000000001,23.735061536333326
2109,10.545,25.283983183818183
2110,10.55,26.844594338523997
2111,10.555,28.41735946853292
2112,10.56,30.003210591360403
2113,10.565,31.60350703693655
2114,10.57,33.21994184640813
2115,10.575000000000001,34.85440021633157
2116,10.58,36.508780085342906
2117,10.585,38.18479521629465
2118,10.59,39.88378807419306
2119,10.595,41.606573299297196
2120,10.6,43.35331781068762
2121,10.605,45.12345536139057
2122,10.61,46.91563531039163
2123,10.615,48.727707458068146
2124,10.620000000000001,50.556740081321216
2125,10.625,52.39906054612308
2126,10.63,54.250303597188974
2127,10.635,56.10545382351406
2128,10.64,57.95887405571583
2129,10.645,59.804317259254645
2130,10.65,61.634923134056095
2131,10.655,63.443202522512344
2132,10.66,65.2210163701945
2133,10.665000000000001,66.95956115075813
2134,10.67,68.6493705101697
2135,10.675,70.28032759739112
2136,10.68,71.84166645541188
2137,10.685,73.32194298750018
2138,10.69,74.70897546309698
2139,10.695,75.9897702825509
2140,10.700000000000001,77.15044617135801
2141,10.705,78.17615646153791
2142,10.71,79.051004042861
2143,10.715,79.75795703322883
2144,10.72,80.27879413500077
2145,10.725,80.59411789956364
2146,10.73,80.68346774099713
2147,10.735,80.52555346186811
2148,10.74,80.09862057844978
2149,10.745000000000001,79.38094740653597
2150,10.75,78.35145928901866
2151,10.755,76.99043133413592
2152,10.76,75.28023920974464
2153,10.765,73.20610847052802
2154,10.77,70.75681315609275
2155,10.775,67.92528966591127
2156,10.78,64.7091536021405
2157,10.785,61.11111988730648
2158,10.790000000000001,57.13932732599393
2159,10.795,52.80756537434398
2160,10.8,48.13539255149309
2161,10.805,43.14811815103923
2162,10.81,37.87660338000112
2163,10.815,32.35684623511174
2164,10.82,26.629349113114607
2165,10.825000000000001,20.738307191300976
2166,10.83,14.730674350180687
2167,10.835,8.655155087781186
2168,10.84,2.5611489188609036
2169,10.845,-3.5023398449503302
2170,10.85,-9.487806245197557
2171,10.855,-15.35032301424259
2172,10.86,-21.04855048112594
2173,10.865,-26.545656114260662
2174,10.870000000000001,-31.81012780242766
2175,10.875,-36.81642359842278
2176,10.88,-41.54535462367405
2177,10.885,-45.98412227854085
2178,10.89,-50.12602220436629
2179,10.895,-53.96990176448661
2180,10.9,-57.51945817267674
2181,10.905,-60.78241699185973
2182,10.91,-63.76960078679144
2183,10.915000000000001,-66.49391889963086
2184,10.92,-68.96935416354131
2185,10.925,-71.21003935198264
2186,10.93,-73.22949043982491
2187,10.935,-75.04002309961346
2188,10.94,-76.65234964180912
2189,10.945,-78.07533947262557
2190,10.950000000000001,-79.31592336852741
2191,10.955,-80.37912844512739
2192,10.96,-81.2682386783419
2193,10.965,-81.9850714147901
2194,10.97,-82.530337619295
2195,10.975,-82.90402599044278
2196,10.98,-83.10574529872677
2197,10.985,-83.13498948487339
2198,10.99,-82.99133595620864
2199,10.995000000000001,-82.67461301998921
2200,11.0,-82.18506578049713
2201,11.005,-81.52352937549574
2202,11.01,-80.69160300678288
2203,11.015,-79.6918113589103
2204,11.02,-78.5277391951877
2205,11.025,-77.20413013611392
2206,11.03,-75.72695122257262
2207,11.035,-74.10343433860723
2208,11.040000000000001,-72.3421035708046
2209,11.045,-70.45278186777685
2210,11.05,-68.4465552662904
2211,11.055,-66.33567520757619
2212,11.06,-64.13339588189972
2213,11.065,-61.853756499047606
2214,11.07,-59.51132146544724
2215,11.075000000000001,-57.12089341488069
2216,11.08,-54.69722018265103
2217,11.085,-52.25472234945858
2218,11.09,-49.80726835245235
2219,11.095,-47.36801888047284
2220,11.1,-44.94934988364169
2221,11.105,-42.562844401049574
2222,11.11,-40.21932659839249
2223,11.115,-37.928906357740736
2224,11.120000000000001,-35.7010049208059
2225,11.125,-33.544331061385414
2226,11.13,-31.46677774185303
2227,11.135,-29.475226469203857
2228,11.14,-27.575281215195698
2229,11.145,-25.77098598538085
2230,11.15,-24.064589153486416
2231,11.155,-22.45639857152592
2232,11.16,-20.944736024332737
2233,11.165000000000001,-19.525967725174315
2234,11.17,-18.1945760580025
2235,11.175,-16.943251031964646
2236,11.18,-15.763006874230024
2237,11.185,-14.643350280050266
2238,11.19,-13.572527127854881
2239,11.195,-12.537853758767575
2240,11.200000000000001,-11.526111922720386
2241,11.205,-10.523971363610489
2242,11.21,-9.518407672957556
2243,11.215,-8.497097126080341
2244,11.22,-7.448780011043853
2245,11.225,-6.363581208571271
2246,11.23,-5.233266514865015
2247,11.235,-4.051408465074319
2248,11.24,-2.813444952633949
2249,11.245000000000001,-1.5166353793218432
2250,11.25,-0.15994160569955146
2251,11.255,1.2561274507645195
2252,11.26,2.729674428489641
2253,11.265,4.257561834870253
2254,11.27,5.83555806555059
2255,11.275,7.458498522989468
2256,11.28,9.120469929797405
2257,11.285,10.815005042565605
2258,11.290000000000001,12.53526036887932
2259,11.295,14.274155643662407
2260,11.3,16.02447724821829
2261,11.305,17.778969896805393
2262,11.31,19.530445869073834
2263,11.315,21.271928456288524
2264,11.32,22.99682915266275
2265,11.325000000000001,24.699149258717263
2266,11.33,26.373696176258907
2267,11.335,28.016303821859783
2268,11.34,29.624040868051182
2269,11.345,31.195384166776982
2270,11.35,32.730333002373364
2271,11.355,34.230443995676225
2272,11.36,35.69877516072171
2273,11.365,37.139738273798386
2274,11.370000000000001,38.55886796822596
2275,11.375,39.96252258412668
2276,11.38,41.35753905974457
2277,11.385,42.75087398179663
2278,11.39,44.14926866682697
2279,11.395,45.55896948872723
2280,11.4,46.98551931870351
2281,11.405,48.43362475611008
2282,11.41,49.90710160668571
2283,11.415000000000001,51.40889783970596
2284,11.42,52.94117644290649
2285,11.425,54.50541413138067
2286,11.43,56.10246111000114
2287,11.435,57.73253265147937
2288,11.44,59.395149606113414
2289,11.445,61.08907330620686
2290,11.450000000000001,62.81227275137729
2291,11.455,64.5619353476289
2292,11.46,66.3345124709498
2293,11.465,68.12578690404108
2294,11.47,69.93095123331419
2295,11.475,71.74468172317265
2296,11.48,73.56118103471327
2297,11.485,75.37415805274411
2298,11.49,77.1767246648159
2299,11.495000000000001,78.96121531097351
2300,11.5,80.7189616665279
2301,11.505,82.44006690878578
2302,11.51,84.11321656127788
2303,11.515,85.72554382000524
2304,11.52,87.26255047582893
2305,11.525,88.708078220834
2306,11.53,90.04432546085418
2307,11.535,91.25190460622622
2308,11.540000000000001,92.30993605059653
2309,11.545,93.19618250587837
2310,11.55,93.8872341699655
2311,11.555,94.35875076730775
2312,11.56,94.58575681854985
2313,11.565,94.54298653800348
2314,11.57,94.20528255067313
2315,11.575000000000001,93.54805270101352
2316,11.58,92.54777957162136
2317,11.585,91.18257038181115
2318,11.59,89.43273394082826
2319,11.595,87.28136680643323
2320,11.6,84.71492001995894
2321,11.605,81.72371138928408
2322,11.61,78.30235616568336
2323,11.615,74.45010748211837
2324,11.620000000000001,70.17111202408117
2325,11.625,65.47458460915571
2326,11.63,60.37489318472068
2327,11.635,54.89153962746357
2328,11.64,49.04902906329999
2329,11.645,42.87663048739013
2330,11.65,36.40802762880022
2331,11.655,29.680843399755524
2332,11.66,22.73602259543492
2333,11.665000000000001,15.617093735179962
2334,11.67,8.369370130518192
2335,11.675,1.0391493138929053
2336,11.68,-6.327055127693767
2337,11.685,-13.683216551421303
2338,11.69,-20.984385913695935
2339,11.695,-28.187145342019555
2340,11.700000000000001,-35.24996167733242
2341,11.705,-42.13351708442478
2342,11.71,-48.80106884403907
2343,11.715,-55.218824165698926
2344,11.72,-61.35626873715615
2345,11.725,-67.18639702946872
2346,11.73,-72.68583932366606
2347,11.735,-77.8349162205653
2348,11.74,-82.61765151163222
2349,11.745000000000001,-87.02175272920509
2350,11.75,-91.03854835218215
2351,11.755,-94.6628620121421
2352,11.76,-97.89280891231287
2353,11.765,-100.72951734100118
2354,11.77,-103.1768029785217
2355,11.775,-105.24084057348793
2356,11.78,-106.92986751299485
2357,11.785,-108.25391643876942
2358,11.790000000000001,-109.22454244458882
2359,11.795,-109.8545207507101
2360,11.8,-110.15753521206268
2361,11.805,-110.14791202951798
2362,11.81,-109.84044770208432
2363,11.815,-109.25034367022235
2364,11.82,-108.39321567411211
2365,11.825000000000001,-107.28511579276977
2366,11.83,-105.9425083801323
2367,11.835,-104.38217877634962
2368,11.84,-102.62109510468764
2369,11.845,-100.67625397458701
2370,11.85,-98.56452546336531
2371,11.855,-96.30250462211798
2372,11.86,-93.90638623974577
2373,11.865,-91.39188543880218
2374,11.870000000000001,-88.77421428877236
2375,11.875,-86.068104368204
2376,11.88,-83.28785399775032
2377,11.885,-80.44738152080389
2378,11.89,-77.56027468673622
2379,11.895,-74.63983030342726
2380,11.9,-71.69907461422078
2381,11.905,-68.75075045794468
2382,11.91,-65.8072630692103
2383,11.915000000000001,-62.880593646420536
2384,11.92,-59.98220376829451
2385,11.925,-57.12294918578926
2386,11.93,-54.31300458091011
2387,11.935,-51.56179188883797
2388,11.94,-48.87791062884156
2389,11.945,-46.269076744109356
2390,11.950000000000001,-43.74207433468538
2391,11.955,-41.30271485777231
2392,11.96,-38.95579341585749
2393,11.965,-36.70503888685516
2394,11.97,-34.55306604074896
2395,11.975,-32.50134005822966
2396,11.98,-30.550155724100495
2397,11.985,-28.698625188990608
2398,11.99,-26.944665649342692
2399,11.995000000000001,-25.284979784137178
2400,12.0,-23.715026923234504
2401,12.005,-22.228993858916855
2402,12.01,-20.819787297287117
2403,12.015,-19.479075167224632
2404,12.02,-18.19739482010595
2405,12.025,-16.964327113967077
2406,12.030000000000001,-15.76871969014398
2407,12.035,-14.59894080450741
2408,12.040000000000001,-13.443154134071333
2409,12.045,-12.289613135045768
2410,12.05,-11.126973207068287
2411,12.055,-9.944613164066363
2412,12.06,-8.732949986839857
2413,12.065,-7.483725707598726
2414,12.07,-6.190242805341897
2415,12.075000000000001,-4.847525185828297
2416,12.08,-3.4523883916811715
2417,12.085,-2.003416527275368
2418,12.09,-0.5008594193077427
2419,12.095,1.0535276539031568
2420,12.1,2.6566826148955944
2421,12.105,4.304463833261601
2422,12.11,5.9918979376362715
2423,12.115,7.713428453836737
2424,12.120000000000001,9.463133064926948
2425,12.125,11.234882179817948
2426,12.13,13.022432803756631
2427,12.135,14.81947033241475
2428,12.14,16.619613998491744
2429,12.145,18.416395696796474
2430,12.15,20.203222151869134
2431,12.155000000000001,21.9733425887183
2432,12.16,23.719856029216913
2433,12.165000000000001,25.435787450924845
2434,12.17,27.114240441600522
2435,12.175,28.748612355407932
2436,12.18,30.332849516147565
2437,12.185,31.861722030487485
2438,12.19,33.331098092230526
2439,12.195,34.73819026786108
2440,12.200000000000001,36.08174052963486
2441,12.205,37.36212146897795
2442,12.21,38.58135861585567
2443,12.215,39.74310488578323
2444,12.22,40.85260208841162
2445,12.225,41.91664362172429
2446,12.23,42.94352845389164
2447,12.235,43.94299318419895
2448,12.24,44.926124672076746
2449,12.245000000000001,45.905268014101445
2450,12.25,46.89394056799298
2451,12.255,47.90674947718005
2452,12.26,48.959299159927596
2453,12.265,50.06806863096536
2454,12.27,51.250231640636216
2455,12.275,52.52338457215847
2456,12.280000000000001,53.90514686338856
2457,12.285,55.412617294539814
2458,12.290000000000001,57.061704749313265
2459,12.295,58.866386340554484
2460,12.3,60.837959071771294
2461,12.305,62.98433817947705
2462,12.31,65.3094308876749
2463,12.315,67.81259786842895
2464,12.32,70.48820984386704
2465,12.325000000000001,73.32530700312618
2466,12.33,76.30737672562987
2467,12.335,79.41228328647713
2468,12.34,82.61239271603839
2469,12.345,85.87491342623827
2470,12.35,89.16243023210816
2471,12.355,92.43358317468609
2472,12.36,95.64384755154272
2473,12.365,98.74638829658105
2474,12.370000000000001,101.692970046026
2475,12.375,104.43490342377997
2476,12.38,106.92400674658464
2477,12.385,109.11356079844857
2478,12.39,110.95922314792413
2479,12.395,112.4198472085386
2480,12.4,113.4581429586116
2481,12.405000000000001,114.04114392121481
2482,12.41,114.14049461856285
2483,12.415000000000001,113.73260595297045
2484,12.42,112.7987282850377
2485,12.425,111.32498138591033
2486,12.43,109.30237324773199
2487,12.435,106.72683316630643
2488,12.44,103.59927100030636
2489,12.445,99.92565523504018
2490,12.450000000000001,95.7170851780708
2491,12.455,90.98982307458392
2492,12.46,85.76524989863198
2493,12.465,80.06971305190983
2494,12.47,73.93424916630622
2495,12.475,67.39419111409777
2496,12.48,60.48869077790928
2497,12.485,53.260191676972774
2498,12.49,45.75387321687188
2499,12.495000000000001,38.01708052465663
2500,12.5,30.09875526258887
2501,12.505,22.048880407577858
2502,12.51,13.917938675571433
2503,12.515,5.756368972196019
2504,12.52,-2.385999653785504
2505,12.525,-10.460546718193292
2506,12.530000000000001,-18.420479155063962
2507,12.535,-26.221431652886828
2508,12.540000000000001,-33.821993466946125
2509,12.545,-41.18411233731948
2510,12.55,-48.27335620453632
2511,12.555,-55.05905552021769
2512,12.56,-61.514379537270464
2513,12.565,-67.61639795874424
2514,12.57,-73.34614297077417
2515,12.575000000000001,-78.68864069747197
2516,12.58,-83.63286324634394
2517,12.585,-88.17157862135493
2518,12.59,-92.30111633460517
2519,12.595,-96.02107905625212
2520,12.6,-99.33401444286125
2521,12.605,-102.24505060191348
2522,12.61,-104.76150720148108
2523,12.615,-106.89250232067427
2524,12.620000000000001,-108.64856799373291
2525,12.625,-110.0412766592504
2526,12.63,-111.08288592117763
2527,12.635,-111.78602978289872
2528,12.64,-112.16349512187467
2529,12.645,-112.22810192523134
2530,12.65,-111.99267181912393
2531,12.655000000000001,-111.4700570062215
2532,12.66,-110.67321470686694
2533,12.665000000000001,-109.61532108746452
2534,12.67,-108.30990552682971
2535,12.675,-106.77096598369988
2536,12.68,-105.0130251507714
2537,12.685,-103.05111174306973
2538,12.69,-100.9006816026042
2539,12.695,-98.5775062761595
2540,12.700000000000001,-96.09755436967318
2541,12.705,-93.47688990139869
2542,12.71,-90.7316109757684
2543,12.715,-87.87783665862261
2544,12.72,-84.93172381834728
2545,12.725,-81.90948089250769
2546,12.73,-78.827350735688
2547,12.735,-75.70154846933059
2548,12.74,-72.54815301393234
2549,12.745000000000001,-69.38296293287512
2550,12.75,-66.22133619352545
2551,12.755,-63.0780323511411
2552,12.76,-59.967063470635146
2553,12.765,-56.90154545665216
2554,12.77,-53.893534872239414
2555,12.775,-50.95384439547755
2556,12.780000000000001,-48.09185342439437
2557,12.785,-45.315357360156234
2558,12.790000000000001,-42.63050488636357
2559,12.795,-40.04184169037958
2560,12.8,-37.55243152135484
2561,12.805,-35.16400145898095
2562,12.81,-32.87707452040329
2563,12.815,-30.6910878354749
2564,12.82,-28.6045150324956
2565,12.825000000000001,-26.6150032036159
2566,12.83,-24.719512901572152
2567,12.835,-22.914438536934274
2568,12.84,-21.19569310781399
2569,12.845,-19.55875443574586
2570,12.85,-17.998682070998832
2571,12.855,-16.510124798026247
2572,12.86,-15.08734405480368
2573,12.865,-13.72427064602831
2574,12.870000000000001,-12.414593042118844
2575,12.875,-11.151859416970701
2576,12.88,-9.929574361665624
2577,12.885,-8.741283119013591
2578,12.89,-7.58064778933419
2579,12.895,-6.441520615368153
2580,12.9,-5.318013208394644
2581,12.905000000000001,-4.204557702459938
2582,12.91,-3.095955790316631
2583,12.915000000000001,-1.9874078425263946
2584,12.92,-0.8745122075687618
2585,12.925,0.2467642539683312
2586,12.93,1.3801244373723875
2587,12.935,2.528960212171242
2588,12.94,3.696335542137891
2589,12.945,4.884935249391893
2590,12.950000000000001,6.096995238335622
2591,12.955,7.334235789588604
2592,12.96,8.5978190203431
2593,12.965,9.888346269382634
2594,12.97,11.205901191376341
2595,12.975,12.550131795965305
2596,12.98,13.920355534964127
2597,12.985,15.315671603360158
2598,12.99,16.735072595782427
2599,12.995000000000001,18.17755506974861
2600,13.0,19.642227478686173
2601,13.005,21.12840529820775
2602,13.01,22.63567757606053
2603,13.015,24.163935800704408
2604,13.02,25.71337030730561
2605,13.025,27.284447233460025
2606,13.030000000000001,28.877873286367453
2607,13.035,30.494543942893564
2608,13.040000000000001,32.13546694842136
2609,13.045,33.801662744700636
2610,13.05,35.49405751165769
2611,13.055,37.213388429932515
2612,13.06,38.96013133036659
2613,13.065,40.73444816758593
2614,13.07,42.536146335296685
2615,13.075000000000001,44.364644770851626
2616,13.08,46.21894593225748
2617,13.085,48.097612008241626
2618,13.09,49.99874066393791
2619,13.095,51.91993734576412
2620,13.1,53.85828879352924
2621,13.105,55.81034898621761
2622,13.11,57.772147412647016
2623,13.115,59.73922090245191
2624,13.120000000000001,61.706661979650065
2625,13.125,63.669175937455655
2626,13.13,65.62114452739564
2627,13.135,67.55669917620249
2628,13.14,69.46980636778198
2629,13.145,71.35436276334367
2630,13.15,73.20428942845467
2631,13.155000000000001,75.01360494796548
2632,13.16,76.77645074118911
2633,13.165000000000001,78.4870446191458
2634,13.17,80.13955266063324
2635,13.175,81.72788949643358
2636,13.18,83.2454729743546
2637,13.185,84.68496407175249
2638,13.19,86.03801923756568
2639,13.195,87.29507666694761
2640,13.200000000000001,88.44519108763988
2641,13.205,89.47591971321788
2642,13.21,90.37324762361904
2643,13.215,91.12153578382632
2644,13.22,91.70348984935053
2645,13.225,92.10017733737574
2646,13.23,92.29114048460055
2647,13.235,92.25464264937486
2648,13.24,91.96805815064135
2649,13.245000000000001,91.40839479753467
2650,13.25,90.5529291541065
2651,13.255,89.37992245368228
2652,13.26,87.86937129250364
2653,13.265,86.00374814579516
2654,13.27,83.76870192958772
2655,13.275,81.15369907709658
2656,13.280000000000001,78.15258235106145
2657,13.285,74.76401864792876
2658,13.290000000000001,70.99180882824821
2659,13.295,66.8450403488059
2660,13.3,62.33807052542016
2661,13.305,57.490333178064084
2662,13.31,52.32596954454592
2663,13.315,46.873300947492396
2664,13.32,41.164182735799
2665,13.325000000000001,35.23329523520954
2666,13.33,29.117427153099463
2667,13.335,22.85478961577861
2668,13.34,16.484376530652863
2669,13.345,10.045373222694463
2670,13.35,3.576613259930535
2671,13.355,-2.883915042918662
2672,13.36,-9.299512846356157
2673,13.365,-15.635169239662337
2674,13.370000000000001,-21.857913615962904
2675,13.375,-27.937108640405796
2676,13.38,-33.84465953027324
2677,13.385,-39.55512166338367
2678,13.39,-45.045712642298966
2679,13.395,-50.29625920373331
2680,13.4,-55.28911396397974
2681,13.405000000000001,-60.00906000829562
2682,13.41,-64.44320301796083
2683,13.415000000000001,-68.58085014570088
2684,13.42,-72.41338429651779
2685,13.425,-75.93414100639535
2686,13.43,-79.13828425806837
2687,13.435,-82.02267611498625
2688,13.44,-84.58574351479312
2689,13.445,-86.82734644706224
2690,13.450000000000001,-88.74864254846509
2691,13.455,-90.35194044358721
2692,13.46,-91.64054549364631
2693,13.465,-92.61861564546678
2694,13.47,-93.29104928090004
2695,13.475,-93.66342089181943
2696,13.48,-93.74197164789926
2697,13.485,-93.53365636422653
2698,13.49,-93.0462448709484
2699,13.495000000000001,-92.28846887401015
2700,13.5,-91.27019279328172
2701,13.505,-90.00257447589863
2702,13.51,-88.49817972271225
2703,13.515,-86.77102781297702
2704,13.52,-84.83656447568951
2705,13.525,-82.71157102114348
2706,13.530000000000001,-80.41402297838965
2707,13.535,-77.96291548677495
2708,13.540000000000001,-75.37807317193366
2709,13.545,-72.67995207600241
2710,13.55,-69.88942800767651
2711,13.555,-67.02756555020346
2712,13.56,-64.11537488119627
2713,13.565,-61.17357471706177
2714,13.57,-58.222382889965665
2715,13.575000000000001,-55.28135525073535
2716,13.58,-52.36928522056998
2717,13.585,-49.504153346650234
2718,13.59,-46.703089084661386
2719,13.595,-43.98229923234618
2720,13.6,-41.35693800368902
2721,13.605,-38.840927840223735
2722,13.61,-36.446765636143155
2723,13.615,-34.18535355713321
2724,13.620000000000001,-32.065878157407205
2725,13.625,-30.09573707548188
2726,13.63,-28.280493674177418
2727,13.635,-26.62383734113428
2728,13.64,-25.127541925682095
2729,13.645,-23.79143611112485
2730,13.65,-22.613409547971795
2731,13.655000000000001,-21.58946684330283
2732,13.66,-20.713817108895395
2733,13.665000000000001,-19.978970080130075
2734,13.67,-19.375811063259782
2735,13.675,-18.893638469049527
2736,13.68,-18.520156102854095
2737,13.685,-18.241415496444645
2738,13.69,-18.04171377343405
2739,13.695,-17.903477519405
2740,13.700000000000001,-17.807185821254205
2741,13.705,-17.731380528952347
2742,13.71,-17.652781033048647
2743,13.715,-17.546495190106725
2744,13.72,-17.386321084303678
2745,13.725,-17.145157860579552
2746,13.73,-16.79555692475099
2747,13.735,-16.310424973698648
2748,13.74,-15.663848298330196
2749,13.745000000000001,-14.831975788706089
2750,13.75,-13.79389511025765
2751,13.755,-12.532454415734097
2752,13.76,-11.035000973876766
2753,13.765,-9.294017174392186
2754,13.77,-7.307636565008557
2755,13.775,-5.080022451710651
2756,13.780000000000001,-2.6215830683148695
2757,13.785,0.05102246564123681
2758,13.790000000000001,2.915142957743325
2759,13.795,5.942686904445319
2760,13.8,9.100938533363843
2761,13.805,12.353564877123315
2762,13.81,15.661740020064387
2763,13.815,18.985346318601948
2764,13.82,22.284239233556356
2765,13.825000000000001,25.519550278587484
2766,13.83,28.654962051101926
2767,13.835,31.657860279781936
2768,13.84,34.5002751764319
2769,13.845,37.15955981937624
2770,13.85,39.61879393736575
2771,13.855,41.86693069851864
2772,13.86,43.89871735831537
2773,13.865,45.71442195947035
2774,13.870000000000001,47.31939507819668
2775,13.875,48.723494587287135
2776,13.88,49.94040603226975
2777,13.885,50.986899086119735
2778,13.89,51.88206355929073
2779,13.895,52.646560484704416
2780,13.9,53.301909465160215
2781,13.905000000000001,53.86982459132331
2782,13.91,54.37161408526304
2783,13.915000000000001,54.82766794347586
2784,13.92,55.25706141321745
2785,13.925,55.677291588723264
2786,13.93,56.10414112642688
2787,13.935,56.55163771427676
2788,13.94,57.03206345090747
2789,13.945,57.55597149145146
2790,13.950000000000001,58.13218416523384
2791,13.955,58.767765251535515
2792,13.96,59.46796801773988
2793,13.965,60.23615824018445
2794,13.97,61.07370696884037
2795,13.975,61.979851714660086
2796,13.98,62.95153655077097
2797,13.985,63.98325125502273
2798,13.99,65.06688997479478
2799,13.995000000000001,66.19164339702053
2800,14.0,67.34393228063591
2801,14.005,68.50738828108618
2802,14.01,69.66288741937318
2803,14.015,70.78863849694315
2804,14.02,71.86032591608824
2805,14.025,72.85130943606924
2806,14.030000000000001,73.7328909811326
2807,14.035,74.47466234011243
2808,14.040000000000001,75.04494230526474
2809,14.045,75.41130070853504
2810,14.05,75.54115718247108
2811,14.055,75.4024390842276
2812,14.06,74.96428480361402
2813,14.065,74.197779593393
2814,14.07,73.07670493163084
2815,14.075000000000001,71.57826979208306
2816,14.08,69.68378280948264
2817,14.085,67.37922828858726
2818,14.09,64.65572454215412
2819,14.095,61.509858055359146
2820,14.1,57.943892428320815
2821,14.105,53.96584830026172
2822,14.11,49.589447346766725
2823,14.115,44.83391737054147
2824,14.120000000000001,39.72366856201466
2825,14.125,34.28786741622884
2826,14.13,28.559943256278
2827,14.135,22.577056007160483
2828,14.14,16.37953916901009
2829,14.145,10.010321306007654
2830,14.15,3.5143262819793746
2831,14.155000000000001,-3.0621481851145016
2832,14.16,-9.672073572819702
2833,14.165000000000001,-16.268350381705798
2834,14.17,-22.804473348263006
2835,14.175,-29.235187840604844
2836,14.18,-35.5171218290737
2837,14.185,-41.60937176618828
2838,14.19,-47.4740142328997
2839,14.195,-53.076518526104984
2840,14.200000000000001,-58.38604773380736
2841,14.205,-63.37564777044971
2842,14.21,-68.02233368611407
2843,14.215,-72.30709415886038
2844,14.22,-76.21484174562264
2845,14.225,-79.73432714729016
2846,14.23,-82.85801673737771
2847,14.235,-85.58192441828655
2848,14.24,-87.90539991768901
2849,14.245000000000001,-89.83089185595198
2850,14.25,-91.36370535309372
2851,14.255,-92.51175751178017
2852,14.26,-93.28531942559356
2853,14.265,-93.69673991726663
2854,14.27,-93.76016630217039
2855,14.275,-93.49128707145996
2856,14.280000000000001,-92.90711399993991
2857,14.285,-92.0258088161775
2858,14.290000000000001,-90.86654652386473
2859,14.295,-89.44939133626524
2860,14.3,-87.79515469710495
2861,14.305,-85.92522382494673
2862,14.31,-83.86137957447212
2863,14.315,-81.62563134945152
2864,14.32,-79.24007742500605
2865,14.325000000000001,-76.72677637110503
2866,14.33,-74.1076099536586
2867,14.335,-71.40412639305957
2868,14.34,-68.63736166726356
2869,14.345,-65.82764141096436
2870,14.35,-62.99437424061722
2871,14.355,-60.155861073073936
2872,14.36,-57.3291479035362
2873,14.365,-54.5299280665198
2874,14.370000000000001,-51.772472964441214
2875,14.375,-49.06956738670114
2876,14.38,-46.43244145789646
2877,14.385,-43.870698319673025
2878,14.39,-41.39223639140236
2879,14.395,-39.003178882438434
2880,14.4,-36.70784037204967
2881,14.405000000000001,-34.50875099974444
2882,14.41,-32.406733492906355
2883,14.415000000000001,-30.401023479204238
2884,14.42,-28.48943511677222
2885,14.425,-26.66856651439831
2886,14.43,-24.934015832433303
2887,14.435,-23.28057794302471
2888,14.44,-21.702418113418307
2889,14.445,-20.19323702953843
2890,14.450000000000001,-18.746431842960597
2891,14.455,-17.355240332680967
2892,14.46,-16.01285139656307
2893,14.465,-14.712473775252876
2894,14.47,-13.447363143115323
2895,14.475,-12.210809806393923
2896,14.48,-10.99609231472859
2897,14.485,-9.796413938591694
2898,14.49,-8.604853178183825
2899,14.495000000000001,-7.414363310864395
2900,14.5,-6.2178473108086365
2901,14.505,-5.008319060264527
2902,14.51,-3.779138279823795
2903,14.515,-2.524276143233048
2904,14.52,-1.2385535982083675
2905,14.525,0.08218331342143552
2906,14.530000000000001,1.4409463264876292
2907,14.535,2.8395245457866167
2908,14.540000000000001,4.278435215920432
2909,14.545,5.7569193679254935
2910,14.55,7.272997615615463
2911,14.555,8.823589448533163
2912,14.56,10.40468187469921
2913,14.565,12.01151783254231
2914,14.57,13.638779772731949
2915,14.575000000000001,15.280775469070297
2916,14.58,16.93165548117593
2917,14.585,18.585665620957002
2918,14.59,20.237388006877683
2919,14.595,21.881912656631844
2920,14.6,23.514917390580038
2921,14.605,25.13266962576983
2922,14.61,26.73197206676615
2923,14.615,28.310071706129648
2924,14.620000000000001,29.864552923788874
2925,14.625,31.393236282298496
2926,14.63,32.89410418113508
2927,14.635,34.365277621025406
2928,14.64,35.805064418608715
2929,14.645,37.21207421857876
2930,14.65,38.58536400585873
2931,14.655000000000001,39.92457033444214
2932,14.66,41.230004347245895
2933,14.665000000000001,42.50270640158889
2934,14.67,43.74446193199201
2935,14.675,44.95777669256324
2936,14.68,46.14580889148077
2937,14.685,47.31225881149881
2938,14.69,48.46122030870878
2939,14.695,49.597003186915934
2940,14.700000000000001,50.72394203585685
2941,14.705,51.846213073237394
2942,14.71,52.96767912874587
2943,14.715,54.0917712349396
2944,14.72,55.22140181614397
2945,14.725,56.35890214361746
2946,14.73,57.5059872335632
2947,14.735,58.66376132429179
2948,14.74,59.832770800515796
2949,14.745000000000001,61.01308732693806
2950,14.75,62.204379210434105
2951,14.755,63.40592376723798
2952,14.76,64.61652971756978
2953,14.765,65.83436250356444
2954,14.77,67.05668713383598
2955,14.775,68.27956234377444
2956,14.780000000000001,69.497534214575
2957,14.785,70.7033792278461
2958,14.790000000000001,71.887932210481
2959,14.795,73.04000976550806
2960,14.8,74.14641639899263
2961,14.805,75.19200749215688
2962,14.81,76.15978119286233
2963,14.815,77.0309768963679
2964,14.82,77.78517118741894
2965,14.825000000000001,78.40038313927231
2966,14.83,78.85322160982159
2967,14.835,79.11911442836816
2968,14.84,79.17264792425537
2969,14.845,78.98802268178186
2970,14.85,78.53961018984452
2971,14.855,77.80258260699817
2972,14.86,76.75358299576207
2973,14.865,75.37140142122338
2974,14.870000000000001,73.6376225573873
2975,14.875,71.5372157052278
2976,14.88,69.05904814860395
2977,14.885,66.19631273427656
2978,14.89,62.94686582400565
2979,14.895,59.31347098305987
2980,14.9,55.30393822512848
2981,14.905000000000001,50.931141780881724
2982,14.91,46.21289701587612
2983,14.915000000000001,41.171685287362955
2984,14.92,35.834235606821515
2985,14.925,30.230996775204805
2986,14.93,24.39554901932443
2987,14.935,18.36399943058229
2988,14.94,12.174384582806738
2989,14.945,5.866082063678184
2990,14.950000000000001,-0.5207768244391574
2991,14.955,-6.945896585799225
2992,14.96,-13.369401343646155
2993,14.965,-19.75239475605637
2994,14.97,-26.05747274151514
2995,14.975,-32.24916653325142
2996,14.98,-38.29430100848006
2997,14.985,-44.16226698630216
2998,14.99,-49.825221310035545
2999,14.995000000000001,-55.25823673458869
3000,15.0,-60.43941984891658
3001,15.005,-65.35000245406783
3002,15.01,-69.97439921526025
3003,15.015,-74.30021901091123
3004,15.02,-78.3182173435803
3005,15.025,-82.02217792159311
3006,15.030000000000001,-85.4087161617428
3007,15.035,-88.47701058185231
3008,15.040000000000001,-91.22848264700995
3009,15.045,-93.66645040976036
3010,15.05,-95.7957801441829
3011,15.055,-97.62256453773952
3012,15.06,-99.15386070471656
3013,15.065,-100.39751017861579
3014,15.07,-101.36203747473971
3015,15.075000000000001,-102.05660401433845
3016,15.08,-102.49099243917009
3017,15.085,-102.67560474319683
3018,15.09,-102.62146169641161
3019,15.095,-102.34018572143162
3020,15.1,-101.8439431162747
3021,15.105,-101.14532780545609
3022,15.11,-100.25719231190446
3023,15.115,-99.19245880099542
3024,15.120000000000001,-97.96394839493277
3025,15.125,-96.58424001605891
3026,15.13,-95.06553593600277
3027,15.135,-93.41950548503125
3028,15.14,-91.6571012895226
3029,15.145,-89.78836247542144
3030,15.15,-87.82221869388007
3031,15.155000000000001,-85.76630038845829
3032,15.16,-83.62676265527178
3033,15.165000000000001,-81.40814240857462
3034,15.17,-79.11327506535291
3035,15.175,-76.74328529604402
3036,15.18,-74.29764602136773
3037,15.185,-71.77429487492562
3038,15.19,-69.16981942059643
3039,15.195,-66.47975170382797
3040,15.200000000000001,-63.6990097114263
3041,15.205,-60.822473963472824
3042,15.21,-57.84563474486027
3043,15.215,-54.76524356897806
3044,15.22,-51.57994176988647
3045,15.225,-48.29086236584281
3046,15.23,-44.90218701932784
3047,15.235,-41.42161745700849
3048,15.24,-37.86071232312665
3049,15.245000000000001,-34.23504013924186
3050,15.25,-30.564104285846753
3051,15.255,-26.871016658168585
3052,15.26,-23.181931189775373
3053,15.265,-19.525278885771375
3054,15.27,-15.930860307666293
3055,15.275,-12.428853553936303
3056,15.280000000000001,-9.048793898801982
3057,15.285,-5.818575894022826
3058,15.290000000000001,-2.763514812521889
3059,15.295,0.09451434263380443
3060,15.3,2.737845774314147
3061,15.305,5.153662427259265
3062,15.31,7.334443448763108
3063,15.315,9.278166171429405
3064,15.32,10.988252996606258
3065,15.325000000000001,12.473296336771227
3066,15.33,13.746613423998575
3067,15.335,14.825683433668972
3068,15.34,15.731512449084743
3069,15.345,16.487957553054624
3070,15.35,17.12102046119037
3071,15.355,17.658103763281545
3072,15.36,18.127222983019912
3073,15.365,18.5561900270422
3074,15.370000000000001,18.971815420795803
3075,15.375,19.399194539261664
3076,15.38,19.861130951590894
3077,15.385,20.377714776002698
3078,15.39,20.966042605277604
3079,15.395,21.64006011330742
3080,15.4,22.410520801810147
3081,15.405000000000001,23.285057794179828
3082,15.41,24.268349983198984
3083,15.415000000000001,25.362344908624024
3084,15.42,26.566497356254878
3085,15.425,27.877997247933948
3086,15.43,29.291980353172807
3087,15.435,30.801728875272204
3088,15.44,32.39887707186458
3089,15.445,34.07364503195158
3090,15.450000000000001,35.8151250368902
3091,15.455,37.6116290494216
3092,15.46,39.451079890717146
3093,15.465,41.32141280765625
3094,15.47,43.21095591986166
3095,15.475,45.10876670181395
3096,15.48,47.004906596019076
3097,15.485000000000001,48.890637526386165
3098,15.49,50.7585280163263
3099,15.495000000000001,52.60246561574884
3100,15.5,54.41758485468718
3101,15.505,56.20013194131967
3102,15.51,57.947294698061434
3103,15.515,59.657025898304276
3104,15.52,61.327880027609815
3105,15.525,62.95887212251942
3106,15.530000000000001,64.54936093278324
3107,15.535,66.09895957954008
3108,15.540000000000001,67.60747463823867
3109,15.545,69.07485909770674
3110,15.55,70.5011459834096
3111,15.555,71.88632924925359
3112,15.56,73.23018179248325
3113,15.565,74.53202920382151
3114,15.57,75.79051224338691
3115,15.575000000000001,77.00336664202432
3116,15.58,78.16723570771056
3117,15.585,79.27752074542425
3118,15.59,80.32826793804178
3119,15.595,81.31208295128759
3120,15.6,82.22005681084322
3121,15.605,83.04168818423304
3122,15.610000000000001,83.76480612202275
3123,15.615,84.37552696947988
3124,15.620000000000001,84.85829700600148
3125,15.625,85.19605916830629
3126,15.63,85.37054467370989
3127,15.635,85.362655835366
3128,15.64,85.15289526038649
3129,15.645,84.72180791937086
3130,15.65,84.05042183954554
3131,15.655000000000001,83.12068573814732
3132,15.66,81.91590097416368
3133,15.665000000000001,80.42113521985935
3134,15.67,78.62359909687524
3135,15.675,76.51297415999154
3136,15.68,74.08169595094218
3137,15.685,71.32520495013877
3138,15.69,68.24217342261015
3139,15.695,64.83470179756206
3140,15.700000000000001,61.10846331589435
3141,15.705,57.07276832380032
3142,15.71,52.740526258010945
3143,15.715,48.12810405527804
3144,15.72,43.255102615219144
3145,15.725,38.144081654888296
3146,15.73,32.820252440730705
3147,15.735000000000001,27.311138785441823
3148,15.74,21.646197298201553
3149,15.745000000000001,15.856396044368834
3150,15.75,9.973766037706397
3151,15.755,4.03094608839611
3152,15.76,-1.939263388274507
3153,15.765,-7.904326015873706
3154,15.77,-13.83235913113095
3155,15.775,-19.692466594769726
3156,15.780000000000001,-25.45499682951792
3157,15.785,-31.091722447181034
3158,15.790000000000001,-36.57595647193406
3159,15.795,-41.88263304046072
3160,15.8,-46.9883826241469
3161,15.805,-51.87162448221756
3162,15.81,-56.51268488927009
3163,15.815,-60.89393248428522
3164,15.82,-64.99990947280307
3165,15.825000000000001,-68.81743655748149
3166,15.83,-72.33567904989525
3167,15.835,-75.5461730769455
3168,15.84,-78.44281785839544
3169,15.845,-81.02184298694186
3170,15.85,-83.28176103297173
3171,15.855,-85.22331490888547
3172,15.860000000000001,-86.84942203287912
3173,15.865,-88.16510243839954
3174,15.870000000000001,-89.17736423123276
3175,15.875,-89.89502016629243
3176,15.88,-90.32842776059265
3177,15.885,-90.48917252287453
3178,15.89,-90.38973352314918
3179,15.895,-90.04317291713171
3180,15.9,-89.46287987304136
3181,15.905000000000001,-88.66238574339407
3182,15.91,-87.65525722024641
3183,15.915000000000001,-86.45506474631894
3184,15.92,-85.07541054438272
3185,15.925,-83.52998694264015
3186,15.93,-81.83263054999098
3187,15.935,-79.9973475201155
3188,15.94,-78.03830327232406
3189,15.945,-75.96978298288539
3190,15.950000000000001,-73.80613100316761
3191,15.955,-71.56167429660807
3192,15.96,-69.25063568830544
3193,15.965,-66.88704793195042
3194,15.97,-64.48468114625517
3195,15.975,-62.05698725159226
3196,15.98,-59.617051187240655
3197,15.985000000000001,-57.17753355719445
3198,15.99,-54.75059903470642
3199,15.995000000000001,-52.347840427410645
3200,16.0,-49.98021390725317
3201,16.005,-47.65798964644293
3202,16.01,-45.39070492873867
3203,16.015,-43.18710126737426
3204,16.02,-41.05503734802084
3205,16.025,-39.001384926841205
3206,16.03,-37.031924532182
3207,16.035,-35.15125859869491
3208,16.04,-33.36275088963618
3209,16.045,-31.66848484869348
3210,16.05,-30.06921972971634
3211,16.055,-28.564325680749914
3212,16.06,-27.151701732337628
3213,16.065,-25.827709953086934
3214,16.07,-24.587169325595784
3215,16.075,-23.423430467977354
3216,16.080000000000002,-22.328514773101308
3217,16.085,-21.293282895467257
3218,16.09,-20.307612116800666
3219,16.095,-19.360592222195447
3220,16.1,-18.440765662845386
3221,16.105,-17.53642463238742
3222,16.11,-16.63594491776723
3223,16.115000000000002,-15.728109584626347
3224,16.12,-14.802375402758084
3225,16.125,-13.849061136514596
3226,16.13,-12.859468668889459
3227,16.135,-11.825963238252625
3228,16.14,-10.742034800476695
3229,16.145,-9.602351365615934
3230,16.15,-8.402805887517735
3231,16.155,-7.140551654446617
3232,16.16,-5.814020841754796
3233,16.165,-4.4229325695914
3234,16.17,-2.9683145742855483
3235,16.175,-1.452567454023747
3236,16.18,0.12042335809271341
3237,16.185,1.7451684961817213
3238,16.19,3.414524929577901
3239,16.195,5.11978713844066
3240,16.2,6.850946647768243
3241,16.205000000000002,8.597094436903355
3242,16.21,10.346905396568562
3243,16.215,12.089133967132264
3244,16.22,13.813063656257807
3245,16.225,15.508883049654173
3246,16.23,17.16799054208845
3247,16.235,18.783243533946205
3248,16.240000000000002,20.349166812938126
3249,16.245,21.862130886911405
3250,16.25,23.32050460395458
3251,16.255,24.724770689903206
3252,16.26,26.077575512249634
3253,16.265,27.383683503637375
3254,16.27,28.64982452571106
3255,16.275,29.884440995546946
3256,16.28,31.097345356293676
3257,16.285,32.29929259921404
3258,16.29,33.501477268085914
3259,16.295,34.71499013234729
3260,16.3,35.950298719656494
3261,16.305,37.21682033829833
3262,16.31,38.52263295905821
3263,16.315,39.874338436035096
3264,16.32,41.27706642346332
3265,16.325,42.734584373355155
3266,16.330000000000002,44.24946268518978
3267,16.335,45.8232431361585
3268,16.34,47.45656965209953
3269,16.345,49.149252910664266
3270,16.35,50.90025730057797
3271,16.355,52.70762756388017
3272,16.36,54.568397722596465
3273,16.365000000000002,56.47852084675515
3274,16.37,58.43282721862266
3275,16.375,60.42499114103435
3276,16.38,62.44748435026989
3277,16.385,64.49151186001603
3278,16.39,66.54694832632215
3279,16.395,68.60230561824324
3280,16.4,70.64475433352938
3281,16.405,72.66019426610336
3282,16.41,74.63334217165128
3283,16.415,76.54780386394172
3284,16.42,78.38612124390048
3285,16.425,80.12981018988292
3286,16.43,81.75941488685471
3287,16.435,83.25459898544472
3288,16.44,84.59428199778309
3289,16.445,85.75681655007915
3290,16.45,86.72019359003086
3291,16.455000000000002,87.4622631281845
3292,16.46,87.96096823501085
3293,16.465,88.19460381906622
3294,16.47,88.14211920382948
3295,16.475,87.78347850586567
3296,16.48,87.10007877857001
3297,16.485,86.07521108949085
3298,16.490000000000002,84.69453721717406
3299,16.495,82.94654274290694
3300,16.5,80.8229183902346
3301,16.505,78.31882377220532
3302,16.51,75.43300691737102
3303,16.515,72.16778448968955
3304,16.52,68.52891757272504
3305,16.525,64.52543319871438
3306,16.53,60.16944048497209
3307,16.535,55.475978505796206
3308,16.54,50.46291474459858
3309,16.545,45.150889568976766
3310,16.55,39.56328055004797
3311,16.555,33.72615034945962
3312,16.56,27.668144852430967
3313,16.565,21.420317204161964
3314,16.57,15.01586330627539
3315,16.575,8.489766319832546
3316,16.580000000000002,1.8783635494909359
3317,16.585,-4.7811347082426305
3318,16.59,-11.451136032697336
3319,16.595,-18.094131899132442
3320,16.6,-24.673116422133038
3321,16.605,-31.151946734749455
3322,16.61,-37.495640187243524
3323,16.615000000000002,-43.6706069519534
3324,16.62,-49.644819290768915
3325,16.625,-55.38792049155471
3326,16.63,-60.87127815987457
3327,16.635,-66.06799017423089
3328,16.64,-70.95285670863893
3329,16.645,-75.50233518317322
3330,16.65,-79.69449504293748
3331,16.655,-83.50898772104397
3332,16.66,-86.92704733583638
3333,16.665,-89.93153983776949
3334,16.67,-92.50707768863185
3335,16.675,-94.640209592511
3336,16.68,-96.31968394347456
3337,16.685,-97.53677831621958
3338,16.69,-98.28568690329075
3339,16.695,-98.56395668939658
3340,16.7,-98.37295544774003
3341,16.705000000000002,-97.71834175384336
3342,16.71,-96.61049619665245
3343,16.715,-95.06486937374981
3344,16.72,-93.10220481417808
3345,16.725,-90.74859935405978
3346,16.73,-88.03537032268021
3347,16.735,-84.99871324226801
3348,16.740000000000002,-81.67915652051681
3349,16.745,-78.1208430305871
3350,16.75,-74.37068079816139
3351,16.755,-70.47740086006498
3352,16.76,-66.49054764165145
3353,16.765,-62.45942176178237
3354,16.77,-58.43200635460196
3355,16.775,-54.453928625666805
3356,16.78,-50.567518830093064
3357,16.785,-46.811015964428584
3358,16.79,-43.21794264819316
3359,16.795,-39.81665253969543
3360,16.8,-36.63004985474506
3361,16.805,-33.67548065998367
3362,16.81,-30.964787311204066
3363,16.815,-28.5045012832625
3364,16.82,-26.296136493624036
3365,16.825,-24.336545737418348
3366,16.830000000000002,-22.618318836963635
3367,16.835,-21.13022363559031
3368,16.84,-19.85770601060345
3369,16.845,-18.783463127650272
3370,16.85,-17.8880870274776
3371,16.855,-17.150753787943387
3372,16.86,-16.549916874542614
3373,16.865000000000002,-16.063955908072824
3374,16.87,-15.67173394129686
3375,16.875,-15.353028213387216
3376,16.88,-15.088823483970481
3377,16.885,-14.861489108697855
3378,16.89,-14.65488374818702
3379,16.895,-14.454427629474578
3380,16.9,-14.247155434523869
3381,16.905,-14.021737488992777
3382,16.91,-13.76845394617331
3383,16.915,-13.479123694514671
3384,16.92,-13.147003634553379
3385,16.925,-12.766667438702504
3386,16.93,-12.333857985684501
3387,16.935,-11.845309893046451
3388,16.94,-11.298559791073217
3389,16.945,-10.691778270602665
3390,16.95,-10.023651579089739
3391,16.955000000000002,-9.293319363478647
3392,16.96,-8.500353892876975
3393,16.965,-7.644756454811676
3394,16.97,-6.726946690615784
3395,16.975,-5.747725004186554
3396,16.98,-4.708196289350544
3397,16.985,-3.6096574248367976
3398,16.990000000000002,-2.4534675570128797
3399,16.995,-1.240929890809457
3400,17.0,0.026788762137339744
3401,17.005,1.3486871045543893
3402,17.01,2.723911016398408
3403,17.015,4.151705132350588
3404,17.02,5.631349981901217
3405,17.025,7.1620838194614915
3406,17.03,8.742999626981456
3407,17.035,10.372925918344484
3408,17.04,12.050325374006501
3409,17.045,13.77324181305861
3410,17.05,15.53929495460319
3411,17.055,17.345699900354752
3412,17.06,19.189291874836762
3413,17.065,21.066549602183805
3414,17.07,22.973614435900245
3415,17.075,24.90629854509253
3416,17.080000000000002,26.860075379878012
3417,17.085,28.830055254919177
3418,17.09,30.81096430497818
3419,17.095,32.797155571752185
3420,17.1,34.78267632736803
3421,17.105,36.76139566361891
3422,17.11,38.72717419283722
3423,17.115000000000002,40.67404845288725
3424,17.12,42.59640705058581
3425,17.125,44.489143704049596
3426,17.13,46.34778003886261
3427,17.135,48.1685612185717
3428,17.14,49.94853715914051
3429,17.145,51.6856410361873
3430,17.150000000000002,53.378761304249586
3431,17.155,55.02778341802867
3432,17.16,56.633568978492
3433,17.165,58.19785095291612
3434,17.17,59.72304514778691
3435,17.175,61.211993585580764
3436,17.18,62.66765782526734
3437,17.185,64.09277708675076
3438,17.19,65.48950778855261
3439,17.195,66.8590674096314
3440,17.2,68.20140422088582
3441,17.205000000000002,69.51489993957394
3442,17.21,70.79610163625824
3443,17.215,72.03948986153593
3444,17.22,73.23730713491545
3445,17.225,74.37946574733247
3446,17.23,75.45353061095476
3447,17.235,76.44476154286289
3448,17.240000000000002,77.33620573016778
3449,17.245,78.10883530016888
3450,17.25,78.74172332688507
3451,17.255,79.21225951304467
3452,17.26,79.49642256761622
3453,17.265,79.56913119484487
3454,17.27,79.40468716126148
3455,17.275000000000002,78.97731617759096
3456,17.28,78.26180541795294
3457,17.285,77.23421712239754
3458,17.29,75.87262917299543
3459,17.295,74.15783795004599
3460,17.3,72.07396925188803
3461,17.305,69.60897231990016
3462,17.31,66.75500536965619
3463,17.315,63.50874372818137
3464,17.32,59.87163842238336
3465,17.325,55.850121554117386
3466,17.330000000000002,51.45572026204228
3467,17.335,46.705035542324765
3468,17.34,41.619566743984834
3469,17.345,36.22538974860917
3470,17.35,30.552708477122028
3471,17.355,24.635301893958772
3472,17.36,18.50989458069851
3473,17.365000000000002,12.215488463487196
3474,17.37,5.792695435694571
3475,17.375,-0.7169018128431741
3476,17.38,-7.271351909954187
3477,17.385,-13.828899109142663
3478,17.39,-20.348502007896023
3479,17.395,-26.790288161528117
3480,17.400000000000002,-33.115925810426106
3481,17.405,-39.28890816245435
3482,17.41,-45.274766622033475
3483,17.415,-51.041245147341535
3484,17.42,-56.55847139862817
3485,17.425,-61.799150207731884
3486,17.43,-66.7387823238381
3487,17.435,-71.35588301047663
3488,17.44,-75.63215688285472
3489,17.445,-79.55259165550677
3490,17.45,-83.10545961937724
3491,17.455000000000002,-86.2822414875057
3492,17.46,-89.0774976400117
3493,17.465,-91.48870713755849
3494,17.47,-93.51608419873047
3495,17.475,-95.16237349562279
3496,17.48,-96.43262353170873
3497,17.485,-97.33394133199464
3498,17.490000000000002,-97.87523891028039
3499,17.495,-98.06698813331928
3500,17.5,-97.92100121474479
3501,17.505,-97.45024827479257
3502,17.51,-96.66871616023927
3503,17.515,-95.59130931013725
3504,17.52,-94.23379180801437
3505,17.525000000000002,-92.61276374405654
3506,17.53,-90.74565504412314
3507,17.535,-88.65071442391607
3508,17.54,-86.34697691655616
3509,17.545,-83.85420760934299
3510,17.55,-81.19283058078298
3511,17.555,-78.38385136647175
3512,17.56,-75.4487711386701
3513,17.565,-72.4094816954069
3514,17.57,-69.28812847388176
3515,17.575,-66.10693223891003
3516,17.580000000000002,-62.88796564099496
3517,17.585,-59.65288833924714
3518,17.59,-56.4226542964996
3519,17.595,-53.21721432955295
3520,17.6,-50.0552399011881
3521,17.605,-46.95388694607201
3522,17.61,-43.928606036273536
3523,17.615000000000002,-40.992996466737445
3524,17.62,-38.158700330539546
3525,17.625,-35.435334532775336
3526,17.63,-32.83045971792011
3527,17.635,-30.349584510360316
3528,17.64,-27.99620236588769
3529,17.645,-25.771858489867352
3530,17.650000000000002,-23.676248316949682
3531,17.655,-21.707357423228093
3532,17.66,-19.86165967992981
3533,17.665,-18.134386024715777
3534,17.67,-16.5198551156493
3535,17.675,-15.011827361961855
3536,17.68,-13.603825630565929
3537,17.685,-12.289374468659489
3538,17.69,-11.062136898090587
3539,17.695,-9.915950226709818
3540,17.7,-8.844767817872247
3541,17.705000000000002,-7.842513712014021
3542,17.71,-6.902871418133349
3543,17.715,-6.019059323993397
3544,17.72,-5.183666337035602
3545,17.725,-4.388603626397246
3546,17.73,-3.625178742745525
3547,17.735,-2.8842546311091346
3548,17.740000000000002,-2.156444585780979
3549,17.745,-1.4323100193906044
3550,17.75,-0.7025499498919312
3551,17.755,0.04181766084622518
3552,17.76,0.80928641528659
3553,17.765,1.6077168881342434
3554,17.77,2.4442284356699777
3555,17.775000000000002,3.325121231040556
3556,17.78,4.255806794609336
3557,17.785,5.240734110034762
3558,17.79,6.283325555386465
3559,17.795,7.385951719672361
3560,17.8,8.549958154011644
3561,17.805,9.775724523854114
3562,17.81,11.06271985162732
3563,17.815,12.409533549508964
3564,17.82,13.813892429717425
3565,17.825,15.272686999355244
3566,17.830000000000002,16.782020069930162
3567,17.835,18.337277305328318
3568,17.84,19.933216174726116
3569,17.845,21.564071857913103
3570,17.85,23.223679873578718
3571,17.855,24.90561650118741
3572,17.86,26.603358730606953
3573,17.865000000000002,28.310460892458998
3574,17.87,30.020735367149797
3575,17.875,31.72841828908897
3576,17.88,33.42830732388936
3577,17.885,35.11587588306141
3578,17.89,36.78738049852185
3579,17.895,38.43996971761926
3580,17.900000000000002,40.07177844157279
3581,17.905,41.68197433115138
3582,17.91,43.270731359922635
3583,17.915,44.83913545851809
3584,17.92,46.38905403306046
3585,17.925,47.9230036045747
3586,17.93,49.44403152439305
3587,17.935,50.9556095144095
3588,17.94,52.461529861289016
3589,17.945,53.96579378553183
3590,17.95,55.472479042176914
3591,17.955000000000002,56.985572304388654
3592,17.96,58.50875686617551
3593,17.965,60.045158158734445
3594,17.97,61.597062019224225
3595,17.975,63.165626161241796
3596,17.98,64.75060291106693
3597,17.985,66.35008553442833
3598,17.990000000000002,67.96028459108531
3599,17.995,69.57533524982348
3600,18.0,71.18713345376219
3601,18.005,72.78520188443831
3602,18.01,74.35659536036988
3603,18.015,75.88586120281401
3604,18.02,77.3550619973018
3605,18.025000000000002,78.74384740710708
3606,18.03,80.02954972558109
3607,18.035,81.18729274025499
3608,18.04,82.19013061132168
3609,18.045,83.00924411824876
3610,18.05,83.61421640472669
3611,18.055,83.9734112428235
3612,18.06,84.05448224049444
3613,18.065,83.8250287764054
3614,18.07,83.25338403887083
3615,18.075,82.3094981593215
3616,18.080000000000002,80.96587696851479
3617,18.085,79.1985418346055
3618,18.09,76.98797729664885
3619,18.095,74.32003174648449
3620,18.1,71.18673277096472
3621,18.105,67.58697207053572
3622,18.11,63.52701356963188
3623,18.115000000000002,59.020792809179426
3624,18.12,54.08999893737003
3625,18.125,48.763942288938246
3626,18.13,43.079202566135244
3627,18.135,37.079040423008564
3628,18.14,30.812562468142016
3629,18.145,24.333662323528767
3630,18.150000000000002,17.699795480816295
3631,18.155,10.970654496536612
3632,18.16,4.206793432623986
3633,18.165,-2.5317673130916223
3634,18.17,-9.186923936523398
3635,18.175,-15.703815323392039
3636,18.18,-22.03204060339284
3637,18.185,-28.12672271527524
3638,18.19,-33.94938299329944
3639,18.195,-39.468595007084495
3640,18.2,-44.660386612796266
3641,18.205000000000002,-49.508370917703154
3642,18.21,-54.003608774594646
3643,18.215,-58.14422224829527
3644,18.22,-61.9347825108231
3645,18.225,-65.38549507415013
3646,18.23,-68.51121199429733
3647,18.235,-71.3303181872263
3648,18.240000000000002,-73.86356087798762
3649,18.245,-76.1329049797119
3650,18.25,-78.16049098620138
3651,18.255,-79.96774425177334
3652,18.26,-81.57464935804065
3653,18.265,-82.99917971728554
3654,18.27,-84.25686736368071
3655,18.275000000000002,-85.36050314310336
3656,18.28,-86.31996333053789
3657,18.285,-87.14216117421687
3658,18.29,-87.83112083260328
3659,18.295,-88.38816685165166
3660,18.3,-88.81221533442856
3661,18.305,-89.10014552589602
3662,18.31,-89.2472264365695
3663,18.315,-89.24757513231182
3664,18.32,-89.09463064816934
3665,18.325,-88.78163698290228
3666,18.330000000000002,-88.30213709318842
3667,18.335,-87.65048163975862
3668,18.34,-86.82234255518537
3669,18.345,-85.81519251415783
3670,18.35,-84.62868828481763
3671,18.355,-83.2649039349824
3672,18.36,-81.72839717354816
3673,18.365000000000002,-80.02613051452136
3674,18.37,-78.16728492998955
3675,18.375,-76.16299779744722
3676,18.38,-74.02604609476009
3677,18.385,-71.77049370648658
3678,18.39,-69.4113268082438
3679,18.395,-66.96410287176894
3680,18.400000000000002,-64.44463258965239
3681,18.405,-61.86870563979187
3682,18.41,-59.25186654198922
3683,18.415,-56.609245190645666
3684,18.42,-53.9554431350757
3685,18.425,-51.30446785599156
3686,18.43,-48.66969469522061
3687,18.435,-46.063826475454675
3688,18.44,-43.49882257531658
3689,18.445,-40.985785910905975
3690,18.45,-38.534821579822705
3691,18.455000000000002,-36.1549001962862
3692,18.46,-33.853758242811935
3693,18.465,-31.637845262689947
3694,18.47,-29.51229846338291
3695,18.475,-27.48091092153771
3696,18.48,-25.546070087588607
3697,18.485,-23.708669162818566
3698,18.490000000000002,-21.968014938401087
3699,18.495,-20.321758845672232
3700,18.5,-18.765868838050846
3701,18.505,-17.294652464054554
3702,18.51,-15.900839272585984
3703,18.515,-14.57572513487121
3704,18.52,-13.30936909789623
3705,18.525000000000002,-12.09082433594385
3706,18.53,-10.908389532650524
3707,18.535,-9.749883040167202
3708,18.54,-8.602950902836746
3709,18.545,-7.4554061462663626
3710,18.55,-6.295570642738509
3711,18.555,-5.1125779200400885
3712,18.56,-3.896605904803152
3713,18.565,-2.6390303310179606
3714,18.57,-1.3325062659832085
3715,18.575,0.029009213145593654
3716,18.580000000000002,1.4502836494393159
3717,18.585,2.9348812946931586
3718,18.59,4.485275214077128
3719,18.595,6.102981836934169
3720,18.6,7.788688489959523
3721,18.605,9.542346679161037
3722,18.61,11.363218645155918
3723,18.615000000000002,13.249878710629568
3724,18.62,15.20017900491308
3725,18.625,17.211195775992753
3726,18.63,19.2791770917086
3727,18.635,21.39951038276956
3728,18.64,23.566722741597363
3729,18.645,25.774524662429684
3730,18.650000000000002,28.01590231604728
3731,18.655,30.28324650869172
3732,18.66,32.56849288144394
3733,18.665,34.86325844743428
3734,18.67,37.158982994991504
3735,18.675,39.44708859841611
3736,18.68,41.719152465015895
3737,18.685,43.96707470414766
3738,18.69,46.18322979941639
3739,18.695,48.36060744080839
3740,18.7,50.49295792303569
3741,18.705000000000002,52.57495467230965
3742,18.71,54.60237602588424
3743,18.715,56.57229495305922
3744,18.72,58.483251275839685
3745,18.725,60.33537059935672
3746,18.73,62.130397356689095
3747,18.735,63.871630852356795
3748,18.740000000000002,65.56378033225717
3749,18.745,67.21276841249909
3750,18.75,68.82550801139013
3751,18.755,70.40966762893754
3752,18.76,71.97342998707425
3753,18.765,73.52523912582753
3754,18.77,75.07352664724858
3755,18.775000000000002,76.6264162663383
3756,18.78,78.19141946253961
3757,18.785,79.7751377782971
3758,18.79,81.38297836136613
3759,18.795,83.01888276450016
3760,18.8,84.6850712850155
3761,18.805,86.38180884005929
3762,18.81,88.10719683212675
3763,18.815,89.85699089108803
3764,18.82,91.62444191740693
3765,18.825,93.40015887513181
3766,18.830000000000002,95.17199363467546
3767,18.835,96.92494762729082
3768,18.84,98.6410977871076
3769,18.845,100.2995427774273
3770,18.85,101.87638893731172
3771,18.855,103.3448207058382
3772,18.86,104.67530050306645
3773,18.865000000000002,105.83590204483838
3774,18.87,106.79273995794881
3775,18.875,107.51047043782788
3776,18.88,107.95288417038506
3777,18.885,108.0836241334706
3778,18.89,107.86701603931749
3779,18.895,107.26894767012895
3780,18.900000000000002,106.25772394648376
3781,18.905,104.8048562604332
3782,18.91,102.88578298368535
3783,18.915,100.48053229827555
3784,18.92,97.57432348781803
3785,18.925,94.15807749311149
3786,18.93,90.22879644923366
3787,18.935,85.7897861922641
3788,18.94,80.85072498299597
3789,18.945,75.42760188006355
3790,18.95,69.54254106005749
3791,18.955000000000002,63.223500738191916
3792,18.96,56.503819426807965
3793,18.965,49.421603579202085
3794,18.97,42.01899361218346
3795,18.975,34.341369853482306
3796,18.98,26.436550857348138
3797,18.985,18.354013444193086
3798,18.990000000000002,10.144148375724132
3799,18.995,1.8575615771212037
3800,19.0,-6.455567147709923
3801,19.005,-14.7460534619398
3802,19.01,-22.966194181201548
3803,19.015,-31.07016840510824
3804,19.02,-39.01436674687846
3805,19.025000000000002,-46.75766782158992
3806,19.03,-54.26167712722639
3807,19.035,-61.49093431627965
3808,19.04,-68.41308812706252
3809,19.045,-74.99903793196006
3810,19.05,-81.22304670023317
3811,19.055,-87.06283768979763
3812,19.06,-92.49968856108109
3813,19.065,-97.51852589928014
3814,19.07,-102.10800304241266
3815,19.075,-106.26052661381982
3816,19.080000000000002,-109.97219571925672
3817,19.085,-113.24263585125756
3818,19.09,-116.07473525641782
3819,19.095,-118.47430784128746
3820,19.1,-120.44970820806965
3821,19.105,-122.01141966707183
3822,19.11,-123.17163500285
3823,19.115000000000002,-123.9438538842361
3824,19.12,-124.34252431932694
3825,19.125,-124.38275310160259
3826,19.13,-124.08010234478837
3827,19.135,-123.45047841444169
3828,19.14,-122.51010399666167
3829,19.145,-121.27554433488967
3830,19.150000000000002,-119.76374771000356
3831,19.155,-117.99207078465099
3832,19.16,-115.97828255463112
3833,19.165,-113.74055437970867
3834,19.17,-111.29744200917956
3835,19.175,-108.66786111780794
3836,19.18,-105.87105789559084
3837,19.185,-102.92657598681858
3838,19.19,-99.85421807936025
3839,19.195,-96.67399862796832
3840,19.2,-93.40608416822344
3841,19.205000000000002,-90.07071536240677
3842,19.21,-86.68810042457879
3843,19.215,-83.27826892597618
3844,19.22,-79.86088223278522
3845,19.225,-76.45500904609892
3846,19.23,-73.0788845352474
3847,19.235,-69.74967382990373
3848,19.240000000000002,-66.48325511773764
3849,19.245,-63.294028867427684
3850,19.25,-60.1947528235946
3851,19.255,-57.19639987699836
3852,19.26,-54.30803738541963
3853,19.265,-51.53673037243445
